0.000000	0.047225
0.500000	0.062557
1.000000	0.062210
1.500000	0.048675
2.000000	0.061332
2.500000	0.058372
3.000000	0.063476
3.500000	0.053472
4.000000	0.065538
4.500000	0.051860
5.000000	0.054840
5.500000	0.066477
6.000000	0.066293
6.500000	0.060985
7.000000	0.051676
7.500000	0.056964
8.000000	0.069989
8.500000	0.051533
9.000000	0.050430
9.500000	0.052533
10.000000	0.065007
10.500000	0.060067
11.000000	0.055718
11.500000	0.059332
12.000000	0.055820
12.500000	0.062517
13.000000	0.069601
13.500000	0.063231
14.000000	0.068049
14.500000	0.074317
15.000000	0.053860
15.500000	0.056229
16.000000	0.054064
16.500000	0.061108
17.000000	0.048736
17.500000	0.060557
18.000000	0.057311
18.500000	0.065926
19.000000	0.060638
19.500000	0.051941
20.000000	0.073623
20.500000	0.057780
21.000000	0.064211
21.500000	0.070560
22.000000	0.050083
22.500000	0.042999
23.000000	0.053942
23.500000	0.049226
24.000000	0.052064
24.500000	0.066967
25.000000	0.053799
25.500000	0.063272
26.000000	0.073806
26.500000	0.041529
27.000000	0.068458
27.500000	0.057147
28.000000	0.063027
28.500000	0.052717
29.000000	0.046164
29.500000	0.054902
30.000000	0.063211
30.500000	0.057923
31.000000	0.060128
31.500000	0.059434
32.000000	0.061169
32.500000	0.072173
33.000000	0.064966
33.500000	0.048144
34.000000	0.057535
34.500000	0.049348
35.000000	0.069723
35.500000	0.063966
36.000000	0.060659
36.500000	0.052370
37.000000	0.059230
37.500000	0.057270
38.000000	0.063578
38.500000	0.058025
39.000000	0.055228
39.500000	0.046633
40.000000	0.053819
40.500000	0.060945
41.000000	0.065579
41.500000	0.054983
42.000000	0.050880
42.500000	0.066641
43.000000	0.061680
43.500000	0.062802
44.000000	0.056780
44.500000	0.061680
45.000000	0.066293
45.500000	0.057494
46.000000	0.066130
46.500000	0.069866
47.000000	0.052942
47.500000	0.062394
48.000000	0.065089
48.500000	0.051717
49.000000	0.045184
49.500000	0.058291
50.000000	0.056249
50.500000	0.043510
51.000000	0.059475
51.500000	0.061210
52.000000	0.061843
52.500000	0.066538
53.000000	0.057535
53.500000	0.051676
54.000000	0.048491
54.500000	0.060781
55.000000	0.053513
55.500000	0.060026
56.000000	0.057392
56.500000	0.050778
57.000000	0.048777
57.500000	0.057678
58.000000	0.050328
58.500000	0.060271
59.000000	0.075562
59.500000	0.064211
60.000000	0.062006
60.500000	0.045204
61.000000	0.036732
61.500000	0.055739
62.000000	0.062108
62.500000	0.054309
63.000000	0.047879
63.500000	0.057801
64.000000	0.064885
64.500000	0.060638
65.000000	0.047082
65.500000	0.059577
66.000000	0.051390
66.500000	0.059209
67.000000	0.048287
67.500000	0.052595
68.000000	0.057453
68.500000	0.060802
69.000000	0.046735
69.500000	0.049716
70.000000	0.055636
70.500000	0.065742
71.000000	0.065518
71.500000	0.053003
72.000000	0.065497
72.500000	0.076808
73.000000	0.057106
73.500000	0.060128
74.000000	0.058209
74.500000	0.065191
75.000000	0.051349
75.500000	0.064885
76.000000	0.065395
76.500000	0.070744
77.000000	0.059087
77.500000	0.054820
78.000000	0.068151
78.500000	0.048777
79.000000	0.058699
79.500000	0.061496
80.000000	0.066600
80.500000	0.054657
81.000000	0.054616
81.500000	0.050818
82.000000	0.067518
82.500000	0.056780
83.000000	0.064048
83.500000	0.053309
84.000000	0.069213
84.500000	0.057229
85.000000	0.036997
85.500000	0.058883
86.000000	0.060434
86.500000	0.052145
87.000000	0.055167
87.500000	0.072296
88.000000	0.064619
88.500000	0.063109
89.000000	0.049369
89.500000	0.048471
90.000000	0.051839
90.500000	0.059781
91.000000	0.048654
91.500000	0.047368
92.000000	0.052227
92.500000	0.076746
93.000000	0.069927
93.500000	0.066783
94.000000	0.066232
94.500000	0.045612
95.000000	0.064966
95.500000	0.056453
96.000000	0.070785
96.500000	0.044122
97.000000	0.061516
97.500000	0.056657
98.000000	0.062190
98.500000	0.061251
99.000000	0.062884
99.500000	0.051533
100.000000	0.075419
100.500000	0.061945
101.000000	0.052288
101.500000	0.069621
102.000000	0.072255
102.500000	0.056739
103.000000	0.050839
103.500000	0.068253
104.000000	0.049348
104.500000	0.045919
105.000000	0.049757
105.500000	0.065681
106.000000	0.057882
106.500000	0.056657
107.000000	0.065416
107.500000	0.054391
108.000000	0.076889
108.500000	0.064762
109.000000	0.060965
109.500000	0.067212
110.000000	0.073561
110.500000	0.070070
111.000000	0.061822
111.500000	0.078441
112.000000	0.065497
112.500000	0.047858
113.000000	0.043795
113.500000	0.056269
114.000000	0.043428
114.500000	0.039835
115.000000	0.056984
115.500000	0.064150
116.000000	0.051247
116.500000	0.055371
117.000000	0.053983
117.500000	0.073133
118.000000	0.072418
118.500000	0.060822
119.000000	0.071602
119.500000	0.069009
120.000000	0.063109
120.500000	0.066661
121.000000	0.061251
121.500000	0.054371
122.000000	0.053166
122.500000	0.052105
123.000000	0.060067
123.500000	0.073419
124.000000	0.070254
124.500000	0.064721
125.000000	0.068968
125.500000	0.055902
126.000000	0.059944
126.500000	0.064334
127.000000	0.048695
127.500000	0.060822
128.000000	0.058638
128.500000	0.059230
129.000000	0.062721
129.500000	0.076767
130.000000	0.040202
130.500000	0.063497
131.000000	0.068988
131.500000	0.059658
132.000000	0.063007
132.500000	0.076379
133.000000	0.064476
133.500000	0.052166
134.000000	0.069560
134.500000	0.054024
135.000000	0.057270
135.500000	0.064374
136.000000	0.072520
136.500000	0.048348
137.000000	0.062680
137.500000	0.059475
138.000000	0.059230
138.500000	0.060353
139.000000	0.073684
139.500000	0.062312
140.000000	0.051962
140.500000	0.052186
141.000000	0.065742
141.500000	0.063088
142.000000	0.061884
142.500000	0.058046
143.000000	0.046429
143.500000	0.062251
144.000000	0.048368
144.500000	0.061312
145.000000	0.063578
145.500000	0.064456
146.000000	0.057311
146.500000	0.064436
147.000000	0.067968
147.500000	0.050696
148.000000	0.057413
148.500000	0.050165
149.000000	0.070907
149.500000	0.061169
150.000000	0.062966
150.500000	0.054718
151.000000	0.054779
151.500000	0.052799
152.000000	0.048103
152.500000	0.066191
153.000000	0.067335
153.500000	0.062251
154.000000	0.062047
154.500000	0.060046
155.000000	0.062312
155.500000	0.059066
156.000000	0.052799
156.500000	0.067069
157.000000	0.059107
157.500000	0.065028
158.000000	0.073664
158.500000	0.070030
159.000000	0.066681
159.500000	0.061700
160.000000	0.066089
160.500000	0.064354
161.000000	0.056269
161.500000	0.072357
162.000000	0.072255
162.500000	0.075174
163.000000	0.079441
163.500000	0.065967
164.000000	0.073459
164.500000	0.067661
165.000000	0.051206
165.500000	0.076563
166.000000	0.052840
166.500000	0.054269
167.000000	0.064232
167.500000	0.057351
168.000000	0.086280
168.500000	0.074358
169.000000	0.062659
169.500000	0.076134
170.000000	0.065742
170.500000	0.091139
171.000000	0.072214
171.500000	0.063742
172.000000	0.082361
172.500000	0.069927
173.000000	0.065906
173.500000	0.069805
174.000000	0.065661
174.500000	0.059352
175.000000	0.062455
175.500000	0.081074
176.000000	0.079870
176.500000	0.060128
177.000000	0.061414
177.500000	0.063680
178.000000	0.066538
178.500000	0.072990
179.000000	0.059270
179.500000	0.063905
180.000000	0.064721
180.500000	0.074031
181.000000	0.067335
181.500000	0.059373
182.000000	0.075276
182.500000	0.060128
183.000000	0.088036
183.500000	0.087240
184.000000	0.066743
184.500000	0.067906
185.000000	0.071152
185.500000	0.056943
186.000000	0.056371
186.500000	0.068233
187.000000	0.077257
187.500000	0.057433
188.000000	0.071132
188.500000	0.071663
189.000000	0.061210
189.500000	0.081564
190.000000	0.067825
190.500000	0.069356
191.000000	0.078114
191.500000	0.055698
192.000000	0.062598
192.500000	0.064558
193.000000	0.060965
193.500000	0.062680
194.000000	0.070969
194.500000	0.073888
195.000000	0.069499
195.500000	0.074419
196.000000	0.040284
196.500000	0.061761
197.000000	0.072071
197.500000	0.080197
198.000000	0.056535
198.500000	0.069193
199.000000	0.060414
199.500000	0.055636
200.000000	0.064191
200.500000	0.065089
201.000000	0.067763
201.500000	0.065620
202.000000	0.050614
202.500000	0.073664
203.000000	0.067763
203.500000	0.063292
204.000000	0.080237
204.500000	0.062292
205.000000	0.062272
205.500000	0.080421
206.000000	0.091486
206.500000	0.078175
207.000000	0.087322
207.500000	0.077808
208.000000	0.080687
208.500000	0.073684
209.000000	0.065987
209.500000	0.087281
210.000000	0.096060
210.500000	0.095447
211.000000	0.083463
211.500000	0.094876
212.000000	0.096958
212.500000	0.083994
213.000000	0.076828
213.500000	0.098550
214.000000	0.096080
214.500000	0.077175
215.000000	0.080503
215.500000	0.082075
216.000000	0.073214
216.500000	0.080952
217.000000	0.087015
217.500000	0.091119
218.000000	0.089833
218.500000	0.078808
219.000000	0.076706
219.500000	0.086832
220.000000	0.089465
220.500000	0.086035
221.000000	0.088812
221.500000	0.077338
222.000000	0.087056
222.500000	0.078829
223.000000	0.093222
223.500000	0.091609
224.000000	0.075868
224.500000	0.073092
225.000000	0.088383
225.500000	0.087036
226.000000	0.089833
226.500000	0.095059
227.000000	0.082116
227.500000	0.094671
228.000000	0.079747
228.500000	0.084586
229.000000	0.093038
229.500000	0.084851
230.000000	0.076828
230.500000	0.069295
231.000000	0.102491
231.500000	0.103675
232.000000	0.091609
232.500000	0.067008
233.000000	0.101613
233.500000	0.093385
234.000000	0.096550
234.500000	0.094467
235.000000	0.098693
235.500000	0.099510
236.000000	0.093263
236.500000	0.097754
237.000000	0.081340
237.500000	0.074950
238.000000	0.078461
238.500000	0.071255
239.000000	0.089098
239.500000	0.093385
240.000000	0.058393
240.500000	0.080687
241.000000	0.077706
241.500000	0.060536
242.000000	0.077073
242.500000	0.077400
243.000000	0.075909
243.500000	0.081054
244.000000	0.070846
244.500000	0.089159
245.000000	0.060495
245.500000	0.078625
246.000000	0.084035
246.500000	0.078339
247.000000	0.078175
247.500000	0.092630
248.000000	0.079605
248.500000	0.081626
249.000000	0.090078
249.500000	0.097264
250.000000	0.086138
250.500000	0.091037
251.000000	0.075766
251.500000	0.086975
252.000000	0.093814
252.500000	0.107799
253.000000	0.104144
253.500000	0.084668
254.000000	0.102082
254.500000	0.094876
255.000000	0.099714
255.500000	0.097795
256.000000	0.109228
256.500000	0.100735
257.000000	0.134196
257.500000	0.105308
258.000000	0.125867
258.500000	0.098795
259.000000	0.098081
259.500000	0.104430
260.000000	0.120763
260.500000	0.119027
261.000000	0.125642
261.500000	0.108819
262.000000	0.126316
262.500000	0.110514
263.000000	0.121538
263.500000	0.117639
264.000000	0.107533
264.500000	0.122661
265.000000	0.142485
265.500000	0.111596
266.000000	0.130521
266.500000	0.128133
267.000000	0.123968
267.500000	0.131665
268.000000	0.120579
268.500000	0.117700
269.000000	0.127806
269.500000	0.129256
270.000000	0.131175
270.500000	0.126561
271.000000	0.118497
271.500000	0.118190
272.000000	0.116026
272.500000	0.113229
273.000000	0.127357
273.500000	0.116557
274.000000	0.116680
274.500000	0.111147
275.000000	0.112270
275.500000	0.102981
276.000000	0.121151
276.500000	0.117843
277.000000	0.116659
277.500000	0.119885
278.000000	0.105124
278.500000	0.106860
279.000000	0.145690
279.500000	0.099367
280.000000	0.119660
280.500000	0.122110
281.000000	0.122559
281.500000	0.137667
282.000000	0.137626
282.500000	0.120497
283.000000	0.143302
283.500000	0.131318
284.000000	0.127071
284.500000	0.103021
285.000000	0.110514
285.500000	0.112147
286.000000	0.102327
286.500000	0.107615
287.000000	0.098489
287.500000	0.116149
288.000000	0.116230
288.500000	0.115700
289.000000	0.112862
289.500000	0.120701
290.000000	0.111943
290.500000	0.107411
291.000000	0.089710
291.500000	0.105533
292.000000	0.104328
292.500000	0.104124
293.000000	0.106043
293.500000	0.109799
294.000000	0.097121
294.500000	0.098816
295.000000	0.112045
295.500000	0.089139
296.000000	0.107635
296.500000	0.106615
297.000000	0.106676
297.500000	0.108738
298.000000	0.097366
298.500000	0.106635
299.000000	0.113699
299.500000	0.119579
300.000000	0.118905
300.500000	0.128296
301.000000	0.124948
301.500000	0.127602
302.000000	0.157878
302.500000	0.122498
303.000000	0.163432
303.500000	0.146548
304.000000	0.155388
304.500000	0.154918
305.000000	0.159573
305.500000	0.177641
306.000000	0.170618
306.500000	0.168495
307.000000	0.177192
307.500000	0.169230
308.000000	0.189012
308.500000	0.186093
309.000000	0.196995
309.500000	0.183235
310.000000	0.163962
310.500000	0.183766
311.000000	0.182561
311.500000	0.192381
312.000000	0.187787
312.500000	0.163921
313.000000	0.176885
313.500000	0.184582
314.000000	0.183419
314.500000	0.190237
315.000000	0.165902
315.500000	0.194790
316.000000	0.185970
316.500000	0.165167
317.000000	0.156245
317.500000	0.150508
318.000000	0.144629
318.500000	0.177253
319.000000	0.172741
319.500000	0.166208
320.000000	0.178070
320.500000	0.160900
321.000000	0.186869
321.500000	0.180070
322.000000	0.175967
322.500000	0.171332
323.000000	0.195382
323.500000	0.179907
324.000000	0.175273
324.500000	0.183378
325.000000	0.160818
325.500000	0.167780
326.000000	0.178437
326.500000	0.159736
327.000000	0.153979
327.500000	0.157184
328.000000	0.169965
328.500000	0.158838
329.000000	0.152999
329.500000	0.159777
330.000000	0.149263
330.500000	0.125703
331.000000	0.127826
331.500000	0.139035
332.000000	0.157531
332.500000	0.160206
333.000000	0.164452
333.500000	0.147589
334.000000	0.142914
334.500000	0.142485
335.000000	0.134727
335.500000	0.123805
336.000000	0.125601
336.500000	0.127969
337.000000	0.136932
337.500000	0.145629
338.000000	0.130133
338.500000	0.154204
339.000000	0.154081
339.500000	0.162697
340.000000	0.177825
340.500000	0.184378
341.000000	0.177171
341.500000	0.217104
342.000000	0.223188
342.500000	0.212225
343.000000	0.223413
343.500000	0.228537
344.000000	0.267776
344.500000	0.225128
345.000000	0.265041
345.500000	0.248136
346.000000	0.283088
346.500000	0.271941
347.000000	0.271063
347.500000	0.257201
348.000000	0.250688
348.500000	0.253159
349.000000	0.284150
349.500000	0.278740
350.000000	0.289968
350.500000	0.276106
351.000000	0.255649
351.500000	0.275126
352.000000	0.245217
352.500000	0.274942
353.000000	0.247565
353.500000	0.274432
354.000000	0.261386
354.500000	0.271594
355.000000	0.231538
355.500000	0.261897
356.000000	0.257875
356.500000	0.273248
357.000000	0.236499
357.500000	0.251587
358.000000	0.227149
358.500000	0.224230
359.000000	0.214655
359.500000	0.232743
360.000000	0.241358
360.500000	0.223556
361.000000	0.246176
361.500000	0.282333
362.000000	0.258895
362.500000	0.245299
363.000000	0.261182
363.500000	0.254526
364.000000	0.224801
364.500000	0.226271
365.000000	0.232498
365.500000	0.228027
366.000000	0.247014
366.500000	0.216022
367.000000	0.222392
367.500000	0.224577
368.000000	0.196178
368.500000	0.207795
369.000000	0.171679
369.500000	0.177355
370.000000	0.179764
370.500000	0.214471
371.000000	0.211327
371.500000	0.204426
372.000000	0.191054
372.500000	0.188094
373.000000	0.203140
373.500000	0.155592
374.000000	0.168862
374.500000	0.184541
375.000000	0.173109
375.500000	0.193667
376.000000	0.188237
376.500000	0.201058
377.000000	0.222453
377.500000	0.233886
378.000000	0.270002
378.500000	0.278331
379.000000	0.314283
379.500000	0.325839
380.000000	0.305852
380.500000	0.334372
381.000000	0.302422
381.500000	0.350195
382.000000	0.357626
382.500000	0.339946
383.000000	0.391434
383.500000	0.380042
384.000000	0.373469
384.500000	0.394599
385.000000	0.379410
385.500000	0.384330
386.000000	0.398845
386.500000	0.393211
387.000000	0.402969
387.500000	0.387739
388.000000	0.374653
388.500000	0.416137
389.000000	0.399886
389.500000	0.418812
390.000000	0.406562
390.500000	0.415974
391.000000	0.384289
391.500000	0.388801
392.000000	0.381880
392.500000	0.386249
393.000000	0.368201
393.500000	0.347561
394.000000	0.334658
394.500000	0.340293
395.000000	0.351501
395.500000	0.316447
396.000000	0.341395
396.500000	0.366446
397.000000	0.348827
397.500000	0.328186
398.000000	0.382615
398.500000	0.315692
399.000000	0.384493
399.500000	0.371366
400.000000	0.367364
400.500000	0.326267
401.000000	0.358055
401.500000	0.371509
402.000000	0.355748
402.500000	0.309710
403.000000	0.305178
403.500000	0.328411
404.000000	0.338353
404.500000	0.306301
405.000000	0.339415
405.500000	0.304075
406.000000	0.286661
406.500000	0.254302
407.000000	0.258344
407.500000	0.267490
408.000000	0.268593
408.500000	0.295501
409.000000	0.285926
409.500000	0.283211
410.000000	0.284231
410.500000	0.243380
411.000000	0.266919
411.500000	0.264939
412.000000	0.262529
412.500000	0.255139
413.000000	0.275943
413.500000	0.277841
414.000000	0.270063
414.500000	0.280802
415.000000	0.320020
415.500000	0.305137
416.000000	0.361668
416.500000	0.386678
417.000000	0.379226
417.500000	0.384697
418.000000	0.378225
418.500000	0.398253
419.000000	0.445066
419.500000	0.463073
420.000000	0.491941
420.500000	0.489512
421.000000	0.520135
421.500000	0.495044
422.000000	0.504190
422.500000	0.523463
423.000000	0.537550
423.500000	0.520727
424.000000	0.559680
424.500000	0.550779
425.000000	0.517195
425.500000	0.551637
426.000000	0.497412
426.500000	0.577748
427.000000	0.524606
427.500000	0.522748
428.000000	0.524280
428.500000	0.528383
429.000000	0.536692
429.500000	0.513888
430.000000	0.505150
430.500000	0.485490
431.000000	0.484510
431.500000	0.467871
432.000000	0.432021
432.500000	0.444046
433.000000	0.441637
433.500000	0.448435
434.000000	0.434818
434.500000	0.453621
435.000000	0.460399
435.500000	0.469565
436.000000	0.472281
436.500000	0.461277
437.000000	0.492839
437.500000	0.514153
438.000000	0.487266
438.500000	0.478936
439.000000	0.463134
439.500000	0.468055
440.000000	0.505538
440.500000	0.451110
441.000000	0.468483
441.500000	0.403092
442.000000	0.427529
442.500000	0.452559
443.000000	0.384636
443.500000	0.376755
444.000000	0.366833
444.500000	0.381267
445.000000	0.335005
445.500000	0.351685
446.000000	0.364976
446.500000	0.364710
447.000000	0.341845
447.500000	0.338741
448.000000	0.352624
448.500000	0.348398
449.000000	0.362893
449.500000	0.382492
450.000000	0.353686
450.500000	0.365282
451.000000	0.343417
451.500000	0.325512
452.000000	0.312221
452.500000	0.315243
453.000000	0.334740
453.500000	0.378103
454.000000	0.431061
454.500000	0.413483
455.000000	0.458398
455.500000	0.482754
456.000000	0.494085
456.500000	0.483428
457.000000	0.518277
457.500000	0.565683
458.000000	0.568908
458.500000	0.598389
459.000000	0.614374
459.500000	0.634157
460.000000	0.641752
460.500000	0.623684
461.000000	0.639833
461.500000	0.635709
462.000000	0.669007
462.500000	0.653715
463.000000	0.616436
463.500000	0.650959
464.000000	0.683808
464.500000	0.685850
465.000000	0.639730
465.500000	0.609658
466.000000	0.660493
466.500000	0.735970
467.000000	0.673702
467.500000	0.727355
468.000000	0.712186
468.500000	0.646386
469.000000	0.639547
469.500000	0.666781
470.000000	0.587017
470.500000	0.627665
471.000000	0.620662
471.500000	0.601737
472.000000	0.596265
472.500000	0.536590
473.000000	0.597552
473.500000	0.569990
474.000000	0.555291
474.500000	0.592815
475.000000	0.616354
475.500000	0.606616
476.000000	0.584935
476.500000	0.623092
477.000000	0.627828
477.500000	0.607024
478.000000	0.559721
478.500000	0.602186
479.000000	0.526974
479.500000	0.544450
480.000000	0.546655
480.500000	0.525790
481.000000	0.503272
481.500000	0.513663
482.000000	0.457867
482.500000	0.458765
483.000000	0.416158
483.500000	0.395334
484.000000	0.429796
484.500000	0.427897
485.000000	0.398192
485.500000	0.424834
486.000000	0.452600
486.500000	0.381145
487.000000	0.416484
487.500000	0.427856
488.000000	0.415749
488.500000	0.409727
489.000000	0.387433
489.500000	0.384636
490.000000	0.381921
490.500000	0.391496
491.000000	0.346683
491.500000	0.364159
492.000000	0.350256
492.500000	0.409564
493.000000	0.444087
493.500000	0.502557
494.000000	0.439963
494.500000	0.518155
495.000000	0.558558
495.500000	0.596796
496.000000	0.560579
496.500000	0.622520
497.000000	0.613455
497.500000	0.671354
498.000000	0.708144
498.500000	0.741687
499.000000	0.733561
499.500000	0.766635
500.000000	0.742034
500.500000	0.751997
501.000000	0.764654
501.500000	0.746995
502.000000	0.776067
502.500000	0.726885
503.000000	0.783171
503.500000	0.791113
504.000000	0.752405
504.500000	0.743830
505.000000	0.802117
505.500000	0.755365
506.000000	0.819675
506.500000	0.841989
507.000000	0.765165
507.500000	0.761143
508.000000	0.770187
508.500000	0.725048
509.000000	0.749342
509.500000	0.703305
510.000000	0.682338
510.500000	0.655696
511.000000	0.703509
511.500000	0.637689
512.000000	0.658880
512.500000	0.672314
513.000000	0.632401
513.500000	0.668333
514.000000	0.648183
514.500000	0.697629
515.000000	0.630217
515.500000	0.596184
516.000000	0.661963
516.500000	0.622418
517.000000	0.608025
517.500000	0.625705
518.000000	0.651612
518.500000	0.563457
519.000000	0.559742
519.500000	0.541939
520.000000	0.525219
520.500000	0.548656
521.000000	0.539224
521.500000	0.459092
522.000000	0.440963
522.500000	0.434328
523.000000	0.452028
523.500000	0.431102
524.000000	0.440228
524.500000	0.439922
525.000000	0.415525
525.500000	0.460113
526.000000	0.455152
526.500000	0.433960
527.000000	0.427836
527.500000	0.395436
528.000000	0.388944
528.500000	0.386698
529.000000	0.390679
529.500000	0.392353
530.000000	0.421915
530.500000	0.388331
531.000000	0.383227
531.500000	0.454601
532.000000	0.486694
532.500000	0.483142
533.000000	0.548043
533.500000	0.548778
534.000000	0.593632
534.500000	0.559292
535.000000	0.642160
535.500000	0.634341
536.000000	0.662208
536.500000	0.690790
537.000000	0.723047
537.500000	0.691117
538.000000	0.699242
538.500000	0.736930
539.000000	0.715963
539.500000	0.702938
540.000000	0.705142
540.500000	0.707388
541.000000	0.774086
541.500000	0.729213
542.000000	0.804220
542.500000	0.738747
543.000000	0.717086
543.500000	0.758672
544.000000	0.727498
544.500000	0.796197
545.000000	0.781926
545.500000	0.738563
546.000000	0.728845
546.500000	0.724047
547.000000	0.673641
547.500000	0.703468
548.000000	0.687769
548.500000	0.660085
549.000000	0.651919
549.500000	0.641629
550.000000	0.629216
550.500000	0.654205
551.000000	0.633932
551.500000	0.586629
552.000000	0.626113
552.500000	0.641731
553.000000	0.585302
553.500000	0.631911
554.000000	0.607698
554.500000	0.629706
555.000000	0.623582
555.500000	0.583832
556.000000	0.624909
556.500000	0.606167
557.000000	0.587895
557.500000	0.551208
558.000000	0.526444
558.500000	0.484469
559.000000	0.450313
559.500000	0.499781
560.000000	0.421180
560.500000	0.439085
561.000000	0.431306
561.500000	0.397722
562.000000	0.413667
562.500000	0.371345
563.000000	0.411830
563.500000	0.418179
564.000000	0.434083
564.500000	0.373407
565.000000	0.391434
565.500000	0.393639
566.000000	0.398947
566.500000	0.344356
567.000000	0.356381
567.500000	0.361832
568.000000	0.365976
568.500000	0.368855
569.000000	0.373489
569.500000	0.364057
570.000000	0.347377
570.500000	0.386902
571.000000	0.391006
571.500000	0.417873
572.000000	0.435696
572.500000	0.454499
573.000000	0.459602
573.500000	0.514521
574.000000	0.526831
574.500000	0.495534
575.000000	0.586833
575.500000	0.562579
576.000000	0.543205
576.500000	0.588242
577.000000	0.564743
577.500000	0.584547
578.000000	0.552800
578.500000	0.575421
579.000000	0.569970
579.500000	0.657880
580.000000	0.585649
580.500000	0.586078
581.000000	0.627379
581.500000	0.572093
582.000000	0.570419
582.500000	0.605718
583.000000	0.589855
583.500000	0.621805
584.000000	0.602513
584.500000	0.655777
585.000000	0.571011
585.500000	0.596715
586.000000	0.617375
586.500000	0.555209
587.000000	0.546778
587.500000	0.573747
588.000000	0.522483
588.500000	0.533181
589.000000	0.517195
589.500000	0.516317
590.000000	0.521217
590.500000	0.532037
591.000000	0.489267
591.500000	0.467932
592.000000	0.497004
592.500000	0.502680
593.000000	0.507498
593.500000	0.481223
594.000000	0.435287
594.500000	0.439983
595.000000	0.476650
595.500000	0.430081
596.000000	0.423548
596.500000	0.437431
597.000000	0.371549
597.500000	0.410319
598.000000	0.373611
598.500000	0.359831
599.000000	0.355176
599.500000	0.319510
600.000000	0.303483
600.500000	0.274166
601.000000	0.252097
601.500000	0.276188
602.000000	0.305178
602.500000	0.273779
603.000000	0.289009
603.500000	0.271308
604.000000	0.288315
604.500000	0.249831
605.000000	0.268818
605.500000	0.273084
606.000000	0.259549
606.500000	0.249953
607.000000	0.263652
607.500000	0.235642
608.000000	0.259875
608.500000	0.259549
609.000000	0.237786
609.500000	0.269226
610.000000	0.257507
610.500000	0.275800
611.000000	0.279291
611.500000	0.295848
612.000000	0.323470
612.500000	0.340375
613.000000	0.343253
613.500000	0.313467
614.000000	0.343866
614.500000	0.347071
615.000000	0.361607
615.500000	0.356748
616.000000	0.365282
616.500000	0.425753
617.000000	0.448762
617.500000	0.445230
618.000000	0.438329
618.500000	0.526831
619.000000	0.571236
619.500000	0.618539
620.000000	0.679276
620.500000	0.740094
621.000000	0.729580
621.500000	0.780987
622.000000	0.846868
622.500000	0.842438
623.000000	0.846807
623.500000	0.904114
624.000000	1.021076
624.500000	0.991800
625.000000	1.030977
625.500000	0.835660
626.000000	0.065416
626.500000	0.050043
627.000000	0.058638
627.500000	0.056984
628.000000	0.059740
628.500000	0.058985
629.000000	0.047327
629.500000	0.055861
630.000000	0.068294
630.500000	0.058311
631.000000	0.043836
631.500000	0.057188
632.000000	0.057576
632.500000	0.062925
633.000000	0.043040
633.500000	0.055167
634.000000	0.057678
634.500000	0.060577
635.000000	0.063742
635.500000	0.044898
636.000000	0.069968
636.500000	0.086362
637.000000	0.100857
637.500000	0.139198
638.000000	0.143077
638.500000	0.153550
639.000000	0.199098
639.500000	0.203793
640.000000	0.259140
640.500000	0.295338
641.000000	0.335863
641.500000	0.334148
642.000000	0.392782
642.500000	0.385759
643.000000	0.419649
643.500000	0.431674
644.000000	0.450517
644.500000	0.459807
645.000000	0.512683
645.500000	0.500536
646.000000	0.455356
646.500000	0.535345
647.000000	0.509682
647.500000	0.497535
648.000000	0.552167
648.500000	0.583546
649.000000	0.576993
649.500000	0.557659
650.000000	0.582036
650.500000	0.569419
651.000000	0.608801
651.500000	0.566560
652.000000	0.585853
652.500000	0.535100
653.000000	0.544287
653.500000	0.530363
654.000000	0.536529
654.500000	0.509049
655.000000	0.450068
655.500000	0.521013
656.000000	0.472321
656.500000	0.469994
657.000000	0.442208
657.500000	0.445699
658.000000	0.402520
658.500000	0.414218
659.000000	0.404582
659.500000	0.379675
660.000000	0.407971
660.500000	0.335312
661.000000	0.357769
661.500000	0.306709
662.000000	0.322511
662.500000	0.295787
663.000000	0.274166
663.500000	0.238868
664.000000	0.202834
664.500000	0.158246
665.000000	0.164146
665.500000	0.107064
666.000000	0.102736
666.500000	0.110065
667.000000	0.065967
667.500000	0.048675
668.000000	0.053370
668.500000	0.049675
669.000000	0.054187
669.500000	0.056902
670.000000	0.055330
670.500000	0.055984
671.000000	0.057617
671.500000	0.051227
672.000000	0.063292
672.500000	0.053411
673.000000	0.045817
673.500000	0.393762
674.000000	2.180505
674.500000	2.097148
675.000000	2.012157
675.500000	1.856385
676.000000	1.789483
676.500000	1.707432
677.000000	1.634385
677.500000	1.564624
678.000000	1.515606
678.500000	1.346094
679.000000	1.299648
679.500000	1.165640
680.000000	1.086079
680.500000	1.026241
681.000000	0.962871
681.500000	0.910382
682.000000	0.865753
682.500000	0.832332
683.000000	0.759040
683.500000	0.639894
684.000000	0.595939
684.500000	0.555903
685.000000	0.535692
685.500000	0.447251
686.000000	0.420221
686.500000	0.381839
687.000000	0.367385
687.500000	0.323144
688.000000	0.332188
688.500000	0.345928
689.000000	0.355748
689.500000	0.334250
690.000000	0.341681
690.500000	0.338374
691.000000	0.338129
691.500000	0.334311
692.000000	0.293418
692.500000	0.328289
693.000000	0.313487
693.500000	0.339068
694.000000	0.309077
694.500000	0.291520
695.000000	0.323572
695.500000	0.298094
696.000000	0.310364
696.500000	0.277535
697.000000	0.300360
697.500000	0.281149
698.000000	0.299380
698.500000	0.288110
699.000000	0.303994
699.500000	0.289213
700.000000	0.307709
700.500000	0.296889
701.000000	0.266490
701.500000	0.266551
702.000000	0.254118
702.500000	0.297787
703.000000	0.271186
703.500000	0.272554
704.000000	0.264836
704.500000	0.312078
705.000000	0.318346
705.500000	0.342722
706.000000	0.355135
706.500000	0.394680
707.000000	0.440861
707.500000	0.445250
708.000000	0.476935
708.500000	0.507947
709.000000	0.547145
709.500000	0.569602
710.000000	0.582628
710.500000	0.598450
711.000000	0.611128
711.500000	0.620887
712.000000	0.612210
712.500000	0.614354
713.000000	0.673294
713.500000	0.631768
714.000000	0.622887
714.500000	0.636525
715.000000	0.643344
715.500000	0.658268
716.000000	0.644467
716.500000	0.663678
717.000000	0.639792
717.500000	0.695282
718.000000	0.681072
718.500000	0.679684
719.000000	0.717453
719.500000	0.665577
720.000000	0.618539
720.500000	0.630870
721.000000	0.573216
721.500000	0.596633
722.000000	0.518808
722.500000	0.549799
723.000000	0.575523
723.500000	0.506763
724.000000	0.528812
724.500000	0.516542
725.000000	0.591141
725.500000	0.585894
726.000000	0.490839
726.500000	0.592121
727.000000	0.570766
727.500000	0.583853
728.000000	0.576768
728.500000	0.575441
729.000000	0.533977
729.500000	0.578728
730.000000	0.564805
730.500000	0.562763
731.000000	0.544879
731.500000	0.519563
732.000000	0.544022
732.500000	0.529302
733.000000	0.521054
733.500000	0.489022
734.000000	0.435287
734.500000	0.489552
735.000000	0.484224
735.500000	0.460460
736.000000	0.439513
736.500000	0.422262
737.000000	0.437839
737.500000	0.448598
738.000000	0.429122
738.500000	0.447761
739.000000	0.441330
739.500000	0.417260
740.000000	0.454335
740.500000	0.404194
741.000000	0.393762
741.500000	0.414463
742.000000	0.388739
742.500000	0.399866
743.000000	0.408379
743.500000	0.448374
744.000000	0.471974
744.500000	0.479896
745.000000	0.544287
745.500000	0.569949
746.000000	0.649571
746.500000	0.673763
747.000000	0.658942
747.500000	0.700937
748.000000	0.699242
748.500000	0.783702
749.000000	0.823166
749.500000	0.782824
750.000000	0.851278
750.500000	0.869326
751.000000	0.820757
751.500000	0.836232
752.000000	0.810998
752.500000	0.877492
753.000000	0.856403
753.500000	0.850196
754.000000	0.857709
754.500000	0.865161
755.000000	0.840682
755.500000	0.859914
756.000000	0.872572
756.500000	0.838253
757.000000	0.861935
757.500000	0.843153
758.000000	0.858934
758.500000	0.782314
759.000000	0.812162
759.500000	0.806159
760.000000	0.766655
760.500000	0.765308
761.000000	0.805445
761.500000	0.746260
762.000000	0.770636
762.500000	0.747403
763.000000	0.767574
763.500000	0.733316
764.000000	0.749302
764.500000	0.742401
765.000000	0.776924
765.500000	0.724701
766.000000	0.782518
766.500000	0.783171
767.000000	0.767492
767.500000	0.736236
768.000000	0.792379
768.500000	0.718086
769.000000	0.763389
769.500000	0.727681
770.000000	0.719781
770.500000	0.650408
771.000000	0.634422
771.500000	0.616069
772.000000	0.636525
772.500000	0.566193
773.000000	0.558292
773.500000	0.546512
774.000000	0.522871
774.500000	0.523075
775.000000	0.539408
775.500000	0.529465
776.000000	0.522442
776.500000	0.543307
777.000000	0.525117
777.500000	0.508212
778.000000	0.498984
778.500000	0.478569
779.000000	0.444658
779.500000	0.512724
780.000000	0.447271
780.500000	0.480284
781.000000	0.426366
781.500000	0.454641
782.000000	0.543225
782.500000	0.519972
783.000000	0.508008
783.500000	0.560497
784.000000	0.580872
784.500000	0.630686
785.000000	0.681950
785.500000	0.778823
786.000000	0.776700
786.500000	0.779170
787.000000	0.786254
787.500000	0.890436
788.000000	0.894845
788.500000	0.874981
789.000000	0.891722
789.500000	0.932431
790.000000	0.915098
790.500000	0.891375
791.000000	0.921080
791.500000	0.974814
792.000000	0.913158
792.500000	0.929777
793.000000	0.962074
793.500000	0.988207
794.000000	0.952152
794.500000	1.007316
795.000000	1.008683
795.500000	0.970914
796.000000	1.007806
796.500000	1.004580
797.000000	0.948212
797.500000	0.907013
798.000000	0.891538
798.500000	0.930859
799.000000	0.880269
799.500000	0.875471
800.000000	0.933186
800.500000	0.876512
801.000000	0.855994
801.500000	0.761898
802.000000	0.814326
802.500000	0.807364
803.000000	0.802505
803.500000	0.821308
804.000000	0.794747
804.500000	0.793849
805.000000	0.846787
805.500000	0.799300
806.000000	0.816041
806.500000	0.847828
807.000000	0.821451
807.500000	0.754896
808.000000	0.683992
808.500000	0.790684
809.000000	0.720475
809.500000	0.721026
810.000000	0.656206
810.500000	0.678602
811.000000	0.617457
811.500000	0.565723
812.000000	0.584077
812.500000	0.534447
813.000000	0.519931
813.500000	0.553290
814.000000	0.542266
814.500000	0.524259
815.000000	0.547533
815.500000	0.500924
816.000000	0.535692
816.500000	0.532425
817.000000	0.507130
817.500000	0.484918
818.000000	0.467238
818.500000	0.517481
819.000000	0.511969
819.500000	0.460685
820.000000	0.473955
820.500000	0.477609
821.000000	0.492982
821.500000	0.541510
822.000000	0.560599
822.500000	0.589181
823.000000	0.604595
823.500000	0.661494
824.000000	0.654920
824.500000	0.649469
825.000000	0.731091
825.500000	0.763776
826.000000	0.753507
826.500000	0.810569
827.000000	0.844357
827.500000	0.893355
828.000000	0.887149
828.500000	0.888108
829.000000	0.896274
829.500000	0.835048
830.000000	0.864569
830.500000	0.885515
831.000000	0.835579
831.500000	0.908116
832.000000	0.826657
832.500000	0.908422
833.000000	0.922509
833.500000	0.910913
834.000000	0.892395
834.500000	0.910096
835.000000	0.966627
835.500000	0.897438
836.000000	0.863977
836.500000	0.866161
837.000000	0.870918
837.500000	0.826187
838.000000	0.860037
838.500000	0.813305
839.000000	0.743565
839.500000	0.793808
840.000000	0.731887
840.500000	0.690014
841.000000	0.717208
841.500000	0.767145
842.000000	0.741891
842.500000	0.716922
843.000000	0.733296
843.500000	0.725007
844.000000	0.702672
844.500000	0.694853
845.000000	0.715840
845.500000	0.700733
846.000000	0.717739
846.500000	0.734562
847.000000	0.688320
847.500000	0.686932
848.000000	0.674784
848.500000	0.647693
849.000000	0.599736
849.500000	0.571603
850.000000	0.496228
850.500000	0.545594
851.000000	0.502373
851.500000	0.442780
852.000000	0.456520
852.500000	0.511622
853.000000	0.456642
853.500000	0.476180
854.000000	0.502435
854.500000	0.521258
855.000000	0.476364
855.500000	0.477017
856.000000	0.483285
856.500000	0.494003
857.000000	0.467401
857.500000	0.440289
858.000000	0.452396
858.500000	0.419241
859.000000	0.445495
859.500000	0.425835
860.000000	0.419792
860.500000	0.469177
861.000000	0.511969
861.500000	0.517787
862.000000	0.569337
862.500000	0.574237
863.000000	0.597184
863.500000	0.634810
864.000000	0.669639
864.500000	0.634912
865.000000	0.653817
865.500000	0.750404
866.000000	0.771208
866.500000	0.760469
867.000000	0.751159
867.500000	0.728886
868.000000	0.747056
868.500000	0.756325
869.000000	0.731765
869.500000	0.747097
870.000000	0.751404
870.500000	0.746056
871.000000	0.799647
871.500000	0.749996
872.000000	0.789092
872.500000	0.760653
873.000000	0.819266
873.500000	0.767655
874.000000	0.740074
874.500000	0.727967
875.000000	0.732050
875.500000	0.748465
876.000000	0.645529
876.500000	0.714493
877.000000	0.629563
877.500000	0.628134
878.000000	0.652368
878.500000	0.595204
879.000000	0.657084
879.500000	0.606330
880.000000	0.633544
880.500000	0.603635
881.000000	0.634810
881.500000	0.611291
882.000000	0.627114
882.500000	0.681052
883.000000	0.639363
883.500000	0.606147
884.000000	0.592529
884.500000	0.580627
885.000000	0.556965
885.500000	0.531792
886.000000	0.579157
886.500000	0.547635
887.000000	0.483897
887.500000	0.478038
888.000000	0.458439
888.500000	0.434899
889.000000	0.399703
889.500000	0.373611
890.000000	0.398866
890.500000	0.395293
891.000000	0.394150
891.500000	0.339966
892.000000	0.359075
892.500000	0.390536
893.000000	0.385840
893.500000	0.380144
894.000000	0.347867
894.500000	0.329616
895.000000	0.349460
895.500000	0.318326
896.000000	0.336087
896.500000	0.315039
897.000000	0.373714
897.500000	0.317060
898.000000	0.346948
898.500000	0.371100
899.000000	0.391659
899.500000	0.388168
900.000000	0.493554
900.500000	0.475016
901.000000	0.498535
901.500000	0.469627
902.000000	0.532058
902.500000	0.558272
903.000000	0.521585
903.500000	0.566581
904.000000	0.603350
904.500000	0.562886
905.000000	0.564192
905.500000	0.566785
906.000000	0.583996
906.500000	0.572461
907.000000	0.594101
907.500000	0.555128
908.000000	0.559435
908.500000	0.570807
909.000000	0.606616
909.500000	0.574216
910.000000	0.567520
910.500000	0.605391
911.000000	0.618539
911.500000	0.657227
912.000000	0.574645
912.500000	0.563866
913.000000	0.614537
913.500000	0.592917
914.000000	0.585037
914.500000	0.530445
915.000000	0.553637
915.500000	0.531976
916.000000	0.483366
916.500000	0.480672
917.000000	0.459950
917.500000	0.465053
918.000000	0.418975
918.500000	0.469933
919.000000	0.489144
919.500000	0.450722
920.000000	0.498658
920.500000	0.501598
921.000000	0.485367
921.500000	0.447006
922.000000	0.473975
922.500000	0.441432
923.000000	0.462154
923.500000	0.434695
924.000000	0.400376
924.500000	0.374938
925.000000	0.358463
925.500000	0.339068
926.000000	0.345234
926.500000	0.366731
927.000000	0.334903
927.500000	0.306219
928.000000	0.277678
928.500000	0.299625
929.000000	0.293051
929.500000	0.286008
930.000000	0.315631
930.500000	0.301707
931.000000	0.328431
931.500000	0.326431
932.000000	0.311241
932.500000	0.275269
933.000000	0.258058
933.500000	0.262693
934.000000	0.250484
934.500000	0.245156
935.000000	0.259243
935.500000	0.231150
936.000000	0.286395
936.500000	0.253383
937.000000	0.265898
937.500000	0.284681
938.000000	0.344560
938.500000	0.324940
939.000000	0.333209
939.500000	0.365241
940.000000	0.383105
940.500000	0.389699
941.000000	0.409094
941.500000	0.383493
942.000000	0.406379
942.500000	0.406828
943.000000	0.428264
943.500000	0.436410
944.000000	0.404684
944.500000	0.431184
945.000000	0.403439
945.500000	0.432592
946.000000	0.430530
946.500000	0.420098
947.000000	0.385228
947.500000	0.413810
948.000000	0.431306
948.500000	0.421997
949.000000	0.440902
949.500000	0.433960
950.000000	0.447618
950.500000	0.439799
951.000000	0.452579
951.500000	0.415913
952.000000	0.392598
952.500000	0.421650
953.000000	0.392108
953.500000	0.420445
954.000000	0.366874
954.500000	0.336291
955.000000	0.359667
955.500000	0.333270
956.000000	0.349153
956.500000	0.349766
957.000000	0.332065
957.500000	0.357156
958.000000	0.326145
958.500000	0.343988
959.000000	0.308240
959.500000	0.323001
960.000000	0.334352
960.500000	0.334025
961.000000	0.345458
961.500000	0.293051
962.000000	0.326186
962.500000	0.288049
963.000000	0.267123
963.500000	0.291275
964.000000	0.276861
964.500000	0.251811
965.000000	0.250464
965.500000	0.246136
966.000000	0.246605
966.500000	0.223454
967.000000	0.189094
967.500000	0.219901
968.000000	0.233947
968.500000	0.226373
969.000000	0.231436
969.500000	0.231640
970.000000	0.231640
970.500000	0.201282
971.000000	0.196730
971.500000	0.200425
972.000000	0.191034
972.500000	0.173762
973.000000	0.181397
973.500000	0.194463
974.000000	0.185072
974.500000	0.167535
975.000000	0.175334
975.500000	0.197117
976.000000	0.184725
976.500000	0.215247
977.000000	0.204630
977.500000	0.219044
978.000000	0.232355
978.500000	0.233029
979.000000	0.233090
979.500000	0.250545
980.000000	0.257528
980.500000	0.282721
981.000000	0.288968
981.500000	0.271921
982.000000	0.265265
982.500000	0.247953
983.000000	0.302095
983.500000	0.278495
984.000000	0.294215
984.500000	0.283211
985.000000	0.274779
985.500000	0.258467
986.000000	0.262958
986.500000	0.322286
987.000000	0.273799
987.500000	0.264673
988.000000	0.259304
988.500000	0.306301
989.000000	0.286579
989.500000	0.293806
990.000000	0.272717
990.500000	0.286722
991.000000	0.287927
991.500000	0.266796
992.000000	0.256936
992.500000	0.242645
993.000000	0.254812
993.500000	0.222739
994.000000	0.230579
994.500000	0.245931
995.000000	0.246911
995.500000	0.257793
996.000000	0.234948
996.500000	0.225863
997.000000	0.218207
997.500000	0.212695
998.000000	0.209653
998.500000	0.221269
999.000000	0.231395
999.500000	0.250341
1000.000000	0.197465
1000.500000	0.207162
1001.000000	0.215349
1001.500000	0.200813
1002.000000	0.179499
1002.500000	0.171986
1003.000000	0.176518
1003.500000	0.178070
1004.000000	0.173333
1004.500000	0.154898
1005.000000	0.146405
1005.500000	0.132583
1006.000000	0.147691
1006.500000	0.135258
1007.000000	0.126724
1007.500000	0.171639
1008.000000	0.143383
1008.500000	0.129705
1009.000000	0.147221
1009.500000	0.135176
1010.000000	0.124703
1010.500000	0.154408
1011.000000	0.133686
1011.500000	0.154285
1012.000000	0.143404
1012.500000	0.148548
1013.000000	0.144241
1013.500000	0.130807
1014.000000	0.152856
1014.500000	0.147895
1015.000000	0.128357
1015.500000	0.168597
1016.000000	0.158675
1016.500000	0.165575
1017.000000	0.179540
1017.500000	0.159001
1018.000000	0.159022
1018.500000	0.176334
1019.000000	0.169025
1019.500000	0.175375
1020.000000	0.197322
1020.500000	0.208795
1021.000000	0.169781
1021.500000	0.178315
1022.000000	0.193728
1022.500000	0.191279
1023.000000	0.183827
1023.500000	0.172210
1024.000000	0.172598
1024.500000	0.186297
1025.000000	0.186971
1025.500000	0.175171
1026.000000	0.190544
1026.500000	0.209265
1027.000000	0.180009
1027.500000	0.210429
1028.000000	0.194708
1028.500000	0.195831
1029.000000	0.185828
1029.500000	0.172088
1030.000000	0.172904
1030.500000	0.176191
1031.000000	0.154489
1031.500000	0.145854
1032.000000	0.155776
1032.500000	0.157674
1033.000000	0.131318
1033.500000	0.148875
1034.000000	0.143506
1034.500000	0.150651
1035.000000	0.146323
1035.500000	0.156286
1036.000000	0.149651
1036.500000	0.136993
1037.000000	0.139423
1037.500000	0.177906
1038.000000	0.141832
1038.500000	0.154673
1039.000000	0.157736
1039.500000	0.147303
1040.000000	0.135258
1040.500000	0.122008
1041.000000	0.153591
1041.500000	0.138606
1042.000000	0.117843
1042.500000	0.126969
1043.000000	0.118313
1043.500000	0.121518
1044.000000	0.105655
1044.500000	0.090384
1045.000000	0.115924
1045.500000	0.104593
1046.000000	0.103430
1046.500000	0.108493
1047.000000	0.099285
1047.500000	0.102062
1048.000000	0.104838
1048.500000	0.110534
1049.000000	0.114985
1049.500000	0.108574
1050.000000	0.092079
1050.500000	0.103450
1051.000000	0.128909
1051.500000	0.096652
1052.000000	0.090609
1052.500000	0.093201
1053.000000	0.105941
1053.500000	0.113066
1054.000000	0.111923
1054.500000	0.102123
1055.000000	0.121416
1055.500000	0.120518
1056.000000	0.107452
1056.500000	0.110943
1057.000000	0.130603
1057.500000	0.103491
1058.000000	0.141668
1058.500000	0.146425
1059.000000	0.133420
1059.500000	0.116353
1060.000000	0.112229
1060.500000	0.130419
1061.000000	0.105757
1061.500000	0.128602
1062.000000	0.134033
1062.500000	0.122600
1063.000000	0.125009
1063.500000	0.143853
1064.000000	0.115312
1064.500000	0.130174
1065.000000	0.113290
1065.500000	0.123682
1066.000000	0.129439
1066.500000	0.116455
1067.000000	0.125458
1067.500000	0.113985
1068.000000	0.130072
1068.500000	0.118272
1069.000000	0.113331
1069.500000	0.105533
1070.000000	0.112678
1070.500000	0.094283
1071.000000	0.115516
1071.500000	0.087710
1072.000000	0.114311
1072.500000	0.117231
1073.000000	0.115863
1073.500000	0.103818
1074.000000	0.111147
1074.500000	0.139566
1075.000000	0.107676
1075.500000	0.101531
1076.000000	0.094692
1076.500000	0.105104
1077.000000	0.110065
1077.500000	0.109187
1078.000000	0.103144
1078.500000	0.097795
1079.000000	0.085403
1079.500000	0.093406
1080.000000	0.098040
1080.500000	0.086709
1081.000000	0.090200
1081.500000	0.090180
1082.000000	0.096366
1082.500000	0.074848
1083.000000	0.089220
1083.500000	0.103981
1084.000000	0.088281
1084.500000	0.080258
1085.000000	0.096590
1085.500000	0.072929
1086.000000	0.084872
1086.500000	0.072724
1087.000000	0.078461
1087.500000	0.091527
1088.000000	0.065395
1088.500000	0.066559
1089.000000	0.099734
1089.500000	0.091160
1090.000000	0.074480
1090.500000	0.072643
1091.000000	0.084627
1091.500000	0.071132
1092.000000	0.082463
1092.500000	0.071214
1093.000000	0.085260
1093.500000	0.082157
1094.000000	0.082504
1094.500000	0.082851
1095.000000	0.084566
1095.500000	0.080768
1096.000000	0.096039
1096.500000	0.065538
1097.000000	0.074296
1097.500000	0.100245
1098.000000	0.106615
1098.500000	0.097836
1099.000000	0.095570
1099.500000	0.081626
1100.000000	0.090017
1100.500000	0.100102
1101.000000	0.084811
1101.500000	0.075583
1102.000000	0.087852
1102.500000	0.095508
1103.000000	0.083443
1103.500000	0.096693
1104.000000	0.081626
1104.500000	0.093303
1105.000000	0.081667
1105.500000	0.097427
1106.000000	0.075174
1106.500000	0.090159
1107.000000	0.098244
1107.500000	0.077930
1108.000000	0.085566
1108.500000	0.084913
1109.000000	0.095488
1109.500000	0.095161
1110.000000	0.083749
1110.500000	0.065334
1111.000000	0.076440
1111.500000	0.094814
1112.000000	0.083484
1112.500000	0.076154
1113.000000	0.077073
1113.500000	0.075644
1114.000000	0.094345
1114.500000	0.092895
1115.000000	0.073296
1115.500000	0.067049
1116.000000	0.079298
1116.500000	0.078135
1117.000000	0.054697
1117.500000	0.069519
1118.000000	0.093773
1118.500000	0.072622
1119.000000	0.078237
1119.500000	0.081258
1120.000000	0.068968
1120.500000	0.078012
1121.000000	0.058250
1121.500000	0.074562
1122.000000	0.065681
1122.500000	0.063292
1123.000000	0.070356
1123.500000	0.074562
1124.000000	0.076685
1124.500000	0.075113
1125.000000	0.066702
1125.500000	0.072786
1126.000000	0.055820
1126.500000	0.071459
1127.000000	0.077992
1127.500000	0.069989
1128.000000	0.074051
1128.500000	0.067294
1129.000000	0.067621
1129.500000	0.070540
1130.000000	0.078951
1130.500000	0.056004
1131.000000	0.068070
1131.500000	0.070948
1132.000000	0.066886
1132.500000	0.061312
