0.000000	0.091976
0.500000	0.084035
1.000000	0.086913
1.500000	0.090711
2.000000	0.077788
2.500000	0.097713
3.000000	0.097754
3.500000	0.093998
4.000000	0.094018
4.500000	0.080442
5.000000	0.089731
5.500000	0.082606
6.000000	0.094549
6.500000	0.092426
7.000000	0.105900
7.500000	0.084708
8.000000	0.092324
8.500000	0.079155
9.000000	0.076706
9.500000	0.087730
10.000000	0.090057
10.500000	0.094835
11.000000	0.100184
11.500000	0.105267
12.000000	0.088057
12.500000	0.085995
13.000000	0.083402
13.500000	0.075828
14.000000	0.082218
14.500000	0.081912
15.000000	0.095223
15.500000	0.087465
16.000000	0.082442
16.500000	0.087179
17.000000	0.089363
17.500000	0.077930
18.000000	0.073500
18.500000	0.076808
19.000000	0.080421
19.500000	0.089812
20.000000	0.076828
20.500000	0.081360
21.000000	0.086995
21.500000	0.098612
22.000000	0.082442
22.500000	0.099122
23.000000	0.065252
23.500000	0.082830
24.000000	0.084280
24.500000	0.086240
25.000000	0.088812
25.500000	0.083402
26.000000	0.085505
26.500000	0.083034
27.000000	0.085668
27.500000	0.088955
28.000000	0.094753
28.500000	0.081850
29.000000	0.088342
29.500000	0.094876
30.000000	0.101000
30.500000	0.089833
31.000000	0.102817
31.500000	0.087893
32.000000	0.084872
32.500000	0.097366
33.000000	0.093263
33.500000	0.064089
34.000000	0.080952
34.500000	0.092466
35.000000	0.082075
35.500000	0.082157
36.000000	0.094161
36.500000	0.096978
37.000000	0.098836
37.500000	0.082871
38.000000	0.085995
38.500000	0.077624
39.000000	0.101613
39.500000	0.103899
40.000000	0.090609
40.500000	0.083994
41.000000	0.098510
41.500000	0.081932
42.000000	0.091956
42.500000	0.084545
43.000000	0.091037
43.500000	0.082157
44.000000	0.083198
44.500000	0.087138
45.000000	0.081401
45.500000	0.087995
46.000000	0.097570
46.500000	0.093651
47.000000	0.085137
47.500000	0.095958
48.000000	0.073174
48.500000	0.090813
49.000000	0.067723
49.500000	0.082320
50.000000	0.088404
50.500000	0.081299
51.000000	0.081564
51.500000	0.091813
52.000000	0.094018
52.500000	0.087444
53.000000	0.092528
53.500000	0.098754
54.000000	0.088690
54.500000	0.089690
55.000000	0.095794
55.500000	0.096958
56.000000	0.091813
56.500000	0.095059
57.000000	0.089363
57.500000	0.086975
58.000000	0.078604
58.500000	0.079870
59.000000	0.089486
59.500000	0.095998
60.000000	0.069580
60.500000	0.078420
61.000000	0.090139
61.500000	0.105083
62.000000	0.086076
62.500000	0.079931
63.000000	0.085219
63.500000	0.097550
64.000000	0.089384
64.500000	0.086056
65.000000	0.080482
65.500000	0.075276
66.000000	0.083729
66.500000	0.085505
67.000000	0.078012
67.500000	0.094528
68.000000	0.090057
68.500000	0.083504
69.000000	0.071377
69.500000	0.088322
70.000000	0.081646
70.500000	0.084239
71.000000	0.074194
71.500000	0.077481
72.000000	0.094324
72.500000	0.088363
73.000000	0.074235
73.500000	0.092956
74.000000	0.090752
74.500000	0.098612
75.000000	0.084974
75.500000	0.092916
76.000000	0.068519
76.500000	0.102981
77.000000	0.089894
77.500000	0.085607
78.000000	0.086403
78.500000	0.083994
79.000000	0.067396
79.500000	0.076501
80.000000	0.087893
80.500000	0.106308
81.000000	0.098428
81.500000	0.118844
82.000000	0.096672
82.500000	0.074991
83.000000	0.086730
83.500000	0.088526
84.000000	0.083769
84.500000	0.085974
85.000000	0.088404
85.500000	0.086689
86.000000	0.091037
86.500000	0.082932
87.000000	0.095733
87.500000	0.081809
88.000000	0.083851
88.500000	0.097264
89.000000	0.086423
89.500000	0.097366
90.000000	0.088690
90.500000	0.090813
91.000000	0.094406
91.500000	0.098122
92.000000	0.089894
92.500000	0.091731
93.000000	0.084525
93.500000	0.079952
94.000000	0.091915
94.500000	0.089547
95.000000	0.083484
95.500000	0.093630
96.000000	0.064721
96.500000	0.088649
97.000000	0.080605
97.500000	0.084913
98.000000	0.067906
98.500000	0.099816
99.000000	0.099551
99.500000	0.081299
100.000000	0.084157
100.500000	0.066171
101.000000	0.097244
101.500000	0.103042
102.000000	0.084770
102.500000	0.083626
103.000000	0.090588
103.500000	0.085709
104.000000	0.082197
104.500000	0.091527
105.000000	0.072214
105.500000	0.088812
106.000000	0.096937
106.500000	0.092385
107.000000	0.076236
107.500000	0.095345
108.000000	0.069376
108.500000	0.082279
109.000000	0.102144
109.500000	0.093385
110.000000	0.086464
110.500000	0.079319
111.000000	0.087220
111.500000	0.081667
112.000000	0.081013
112.500000	0.104879
113.000000	0.093426
113.500000	0.080870
114.000000	0.097060
114.500000	0.086730
115.000000	0.087526
115.500000	0.108513
116.000000	0.076706
116.500000	0.098775
117.000000	0.086730
117.500000	0.090792
118.000000	0.062129
118.500000	0.088751
119.000000	0.085443
119.500000	0.083790
120.000000	0.087403
120.500000	0.094202
121.000000	0.087628
121.500000	0.084892
122.000000	0.090159
122.500000	0.101858
123.000000	0.083933
123.500000	0.087444
124.000000	0.092630
124.500000	0.087934
125.000000	0.087893
125.500000	0.090772
126.000000	0.101837
126.500000	0.086750
127.000000	0.085627
127.500000	0.072071
128.000000	0.090997
128.500000	0.089241
129.000000	0.093773
129.500000	0.084157
130.000000	0.092650
130.500000	0.094079
131.000000	0.089567
131.500000	0.086362
132.000000	0.074684
132.500000	0.078339
133.000000	0.098816
133.500000	0.082708
134.000000	0.086117
134.500000	0.088179
135.000000	0.076195
135.500000	0.092058
136.000000	0.099449
136.500000	0.094283
137.000000	0.098244
137.500000	0.070601
138.000000	0.094610
138.500000	0.087791
139.000000	0.080687
139.500000	0.077257
140.000000	0.077359
140.500000	0.081728
141.000000	0.086321
141.500000	0.080340
142.000000	0.079523
142.500000	0.085178
143.000000	0.104185
143.500000	0.097325
144.000000	0.100694
144.500000	0.103307
145.000000	0.072827
145.500000	0.089486
146.000000	0.086628
146.500000	0.108003
147.000000	0.086485
147.500000	0.084708
148.000000	0.087526
148.500000	0.097652
149.000000	0.080340
149.500000	0.086383
150.000000	0.087648
150.500000	0.098836
151.000000	0.091589
151.500000	0.111188
152.000000	0.083341
152.500000	0.090547
153.000000	0.084974
153.500000	0.094161
154.000000	0.077685
154.500000	0.091874
155.000000	0.081462
155.500000	0.087710
156.000000	0.084627
156.500000	0.085301
157.000000	0.085688
157.500000	0.093222
158.000000	0.092650
158.500000	0.092324
159.000000	0.080197
159.500000	0.096203
160.000000	0.091099
160.500000	0.079482
161.000000	0.093263
161.500000	0.076706
162.000000	0.099959
162.500000	0.085852
163.000000	0.088730
163.500000	0.092079
164.000000	0.085362
164.500000	0.084729
165.000000	0.086423
165.500000	0.073337
166.000000	0.082973
166.500000	0.086934
167.000000	0.072867
167.500000	0.076338
168.000000	0.090037
168.500000	0.095610
169.000000	0.107411
169.500000	0.086280
170.000000	0.087138
170.500000	0.086709
171.000000	0.100469
171.500000	0.094916
172.000000	0.070132
172.500000	0.070295
173.000000	0.109840
173.500000	0.107227
174.000000	0.080442
174.500000	0.081299
175.000000	0.074358
175.500000	0.068478
176.000000	0.080360
176.500000	0.091936
177.000000	0.081626
177.500000	0.077930
178.000000	0.091486
178.500000	0.086505
179.000000	0.095876
179.500000	0.086873
180.000000	0.104348
180.500000	0.103287
181.000000	0.078441
181.500000	0.093875
182.000000	0.088526
182.500000	0.088077
183.000000	0.084851
183.500000	0.090425
184.000000	0.091058
184.500000	0.092691
185.000000	0.101000
185.500000	0.090833
186.000000	0.090445
186.500000	0.095570
187.000000	0.096774
187.500000	0.080625
188.000000	0.083994
188.500000	0.078686
189.000000	0.079584
189.500000	0.085423
190.000000	0.089282
190.500000	0.096876
191.000000	0.096856
191.500000	0.106410
192.000000	0.089098
192.500000	0.099796
193.000000	0.081217
193.500000	0.114393
194.000000	0.074358
194.500000	0.089037
195.000000	0.085443
195.500000	0.087301
196.000000	0.085178
196.500000	0.073378
197.000000	0.084892
197.500000	0.097080
198.000000	0.085974
198.500000	0.086138
199.000000	0.089465
199.500000	0.102470
200.000000	0.097264
200.500000	0.085301
201.000000	0.106615
201.500000	0.072622
202.000000	0.079155
202.500000	0.090323
203.000000	0.086423
203.500000	0.099530
204.000000	0.111208
204.500000	0.065885
205.000000	0.090547
205.500000	0.094202
206.000000	0.075644
206.500000	0.089955
207.000000	0.070826
207.500000	0.080891
208.000000	0.088220
208.500000	0.096550
209.000000	0.069213
209.500000	0.089527
210.000000	0.089506
210.500000	0.077563
211.000000	0.077257
211.500000	0.091180
212.000000	0.087955
212.500000	0.086628
213.000000	0.098979
213.500000	0.094692
214.000000	0.093671
214.500000	0.077808
215.000000	0.067682
215.500000	0.085403
216.000000	0.098999
216.500000	0.089363
217.000000	0.076440
217.500000	0.086240
218.000000	0.085872
218.500000	0.085750
219.000000	0.084178
219.500000	0.080911
220.000000	0.081769
220.500000	0.079033
221.000000	0.071887
221.500000	0.099449
222.000000	0.099081
222.500000	0.099939
223.000000	0.069233
223.500000	0.079645
224.000000	0.085852
224.500000	0.079155
225.000000	0.085974
225.500000	0.090159
226.000000	0.112739
226.500000	0.093303
227.000000	0.097244
227.500000	0.074970
228.000000	0.095365
228.500000	0.086403
229.000000	0.086934
229.500000	0.099081
230.000000	0.095651
230.500000	0.082953
231.000000	0.081034
231.500000	0.082606
232.000000	0.106778
232.500000	0.091160
233.000000	0.076971
233.500000	0.078910
234.000000	0.081728
234.500000	0.088036
235.000000	0.090037
235.500000	0.077910
236.000000	0.074848
236.500000	0.096672
237.000000	0.101021
237.500000	0.086015
238.000000	0.092344
238.500000	0.091017
239.000000	0.077400
239.500000	0.097713
240.000000	0.088996
240.500000	0.107533
241.000000	0.076971
241.500000	0.085362
242.000000	0.087669
242.500000	0.076501
243.000000	0.085770
243.500000	0.083014
244.000000	0.092058
244.500000	0.089425
245.000000	0.079727
245.500000	0.091364
246.000000	0.097795
246.500000	0.093385
247.000000	0.099367
247.500000	0.093446
248.000000	0.095263
248.500000	0.087260
249.000000	0.081626
249.500000	0.078808
250.000000	0.091446
250.500000	0.085954
251.000000	0.092711
251.500000	0.089241
252.000000	0.088547
252.500000	0.090343
253.000000	0.095651
253.500000	0.077930
254.000000	0.090935
254.500000	0.077114
255.000000	0.086566
255.500000	0.090262
256.000000	0.100714
256.500000	0.084627
257.000000	0.087444
257.500000	0.108064
258.000000	0.084239
258.500000	0.093283
259.000000	0.081156
259.500000	0.109738
260.000000	0.077890
260.500000	0.085015
261.000000	0.090180
261.500000	0.100469
262.000000	0.089302
262.500000	0.081667
263.000000	0.094610
263.500000	0.083524
264.000000	0.080197
264.500000	0.092181
265.000000	0.084545
265.500000	0.089465
266.000000	0.085341
266.500000	0.096162
267.000000	0.097632
267.500000	0.087689
268.000000	0.077849
268.500000	0.098265
269.000000	0.097877
269.500000	0.097285
270.000000	0.077073
270.500000	0.076420
271.000000	0.087301
271.500000	0.083259
272.000000	0.095978
272.500000	0.091548
273.000000	0.097917
273.500000	0.115985
274.000000	0.082851
274.500000	0.088710
275.000000	0.079809
275.500000	0.100653
276.000000	0.086158
276.500000	0.092283
277.000000	0.076216
277.500000	0.082646
278.000000	0.088526
278.500000	0.093569
279.000000	0.088608
279.500000	0.100122
280.000000	0.101490
280.500000	0.096448
281.000000	0.097917
281.500000	0.079074
282.000000	0.081319
282.500000	0.096488
283.000000	0.093875
283.500000	0.096468
284.000000	0.102960
284.500000	0.091997
285.000000	0.091609
285.500000	0.097285
286.000000	0.091262
286.500000	0.083667
287.000000	0.080054
287.500000	0.098285
288.000000	0.090670
288.500000	0.086730
289.000000	0.086852
289.500000	0.104124
290.000000	0.089241
290.500000	0.087791
291.000000	0.090017
291.500000	0.089425
292.000000	0.101654
292.500000	0.111759
293.000000	0.103409
293.500000	0.096856
294.000000	0.084218
294.500000	0.085076
295.000000	0.089629
295.500000	0.112780
296.000000	0.088832
296.500000	0.084463
297.000000	0.089833
297.500000	0.081054
298.000000	0.084504
298.500000	0.098918
299.000000	0.082381
299.500000	0.076461
300.000000	0.086076
300.500000	0.076848
301.000000	0.081074
301.500000	0.091956
302.000000	0.095590
302.500000	0.065252
303.000000	0.087444
303.500000	0.098244
304.000000	0.089465
304.500000	0.106512
305.000000	0.086383
305.500000	0.097182
306.000000	0.097999
306.500000	0.091017
307.000000	0.096999
307.500000	0.092609
308.000000	0.087995
308.500000	0.092916
309.000000	0.100776
309.500000	0.096733
310.000000	0.109167
310.500000	0.090302
311.000000	0.089282
311.500000	0.100633
312.000000	0.096468
312.500000	0.099285
313.000000	0.095958
313.500000	0.081626
314.000000	0.101878
314.500000	0.088077
315.000000	0.097713
315.500000	0.072806
316.000000	0.096550
316.500000	0.108391
317.000000	0.089833
317.500000	0.094345
318.000000	0.105757
318.500000	0.072745
319.000000	0.105859
319.500000	0.062210
320.000000	0.107350
320.500000	0.094018
321.000000	0.100571
321.500000	0.093487
322.000000	0.081850
322.500000	0.090649
323.000000	0.084178
323.500000	0.095059
324.000000	0.084790
324.500000	0.101899
325.000000	0.109738
325.500000	0.090139
326.000000	0.112658
326.500000	0.081462
327.000000	0.087587
327.500000	0.076011
328.000000	0.093936
328.500000	0.097856
329.000000	0.096815
329.500000	0.101327
330.000000	0.084259
330.500000	0.088649
331.000000	0.097387
331.500000	0.087995
332.000000	0.087118
332.500000	0.095488
333.000000	0.091854
333.500000	0.110963
334.000000	0.100878
334.500000	0.095406
335.000000	0.120926
335.500000	0.109167
336.000000	0.103940
336.500000	0.122478
337.000000	0.113086
337.500000	0.092283
338.000000	0.104532
338.500000	0.117864
339.000000	0.090057
339.500000	0.083871
340.000000	0.097836
340.500000	0.111004
341.000000	0.096550
341.500000	0.102286
342.000000	0.096121
342.500000	0.100061
343.000000	0.108574
343.500000	0.091691
344.000000	0.075542
344.500000	0.074194
345.000000	0.093426
345.500000	0.100510
346.000000	0.110759
346.500000	0.131624
347.000000	0.089322
347.500000	0.089894
348.000000	0.084627
348.500000	0.090343
349.000000	0.094202
349.500000	0.085035
350.000000	0.089465
350.500000	0.099204
351.000000	0.098060
351.500000	0.091017
352.000000	0.097754
352.500000	0.100694
353.000000	0.086342
353.500000	0.095958
354.000000	0.081524
354.500000	0.087648
355.000000	0.099347
355.500000	0.084913
356.000000	0.082197
356.500000	0.081340
357.000000	0.089996
357.500000	0.115536
358.000000	0.127765
358.500000	0.104185
359.000000	0.105716
359.500000	0.094631
360.000000	0.087403
360.500000	0.079645
361.000000	0.086587
361.500000	0.127092
362.000000	0.107452
362.500000	0.095345
363.000000	0.102205
363.500000	0.110391
364.000000	0.115740
364.500000	0.132808
365.000000	0.115067
365.500000	0.104920
366.000000	0.111249
366.500000	0.113046
367.000000	0.112433
367.500000	0.119252
368.000000	0.117659
368.500000	0.111555
369.000000	0.112617
369.500000	0.100429
370.000000	0.105369
370.500000	0.110555
371.000000	0.086648
371.500000	0.103042
372.000000	0.121538
372.500000	0.120007
373.000000	0.115148
373.500000	0.104655
374.000000	0.117047
374.500000	0.112923
375.000000	0.110861
375.500000	0.115740
376.000000	0.106125
376.500000	0.094365
377.000000	0.097142
377.500000	0.097019
378.000000	0.097264
378.500000	0.088322
379.000000	0.075031
379.500000	0.089894
380.000000	0.091691
380.500000	0.094141
381.000000	0.112106
381.500000	0.086750
382.000000	0.083484
382.500000	0.086240
383.000000	0.090894
383.500000	0.074541
384.000000	0.090772
384.500000	0.082014
385.000000	0.083320
385.500000	0.105022
386.000000	0.101266
386.500000	0.102572
387.000000	0.122559
387.500000	0.099714
388.000000	0.105594
388.500000	0.122171
389.000000	0.115965
389.500000	0.126785
390.000000	0.116047
390.500000	0.124785
391.000000	0.115291
391.500000	0.114536
392.000000	0.143526
392.500000	0.118394
393.000000	0.148548
393.500000	0.145425
394.000000	0.123376
394.500000	0.128684
395.000000	0.117557
395.500000	0.123110
396.000000	0.114046
396.500000	0.124478
397.000000	0.121579
397.500000	0.111494
398.000000	0.140852
398.500000	0.112392
399.000000	0.109167
399.500000	0.113719
400.000000	0.096100
400.500000	0.104920
401.000000	0.104614
401.500000	0.098999
402.000000	0.104859
402.500000	0.100020
403.000000	0.100184
403.500000	0.110759
404.000000	0.104389
404.500000	0.093242
405.000000	0.096529
405.500000	0.090037
406.000000	0.116128
406.500000	0.103613
407.000000	0.076236
407.500000	0.082504
408.000000	0.103103
408.500000	0.076216
409.000000	0.087036
409.500000	0.093957
410.000000	0.088138
410.500000	0.096182
411.000000	0.100919
411.500000	0.115985
412.000000	0.096284
412.500000	0.089874
413.000000	0.089261
413.500000	0.097591
414.000000	0.110984
414.500000	0.132298
415.000000	0.109799
415.500000	0.110739
416.000000	0.129256
416.500000	0.144649
417.000000	0.130603
417.500000	0.143036
418.000000	0.150692
418.500000	0.125295
419.000000	0.123315
419.500000	0.121293
420.000000	0.128745
420.500000	0.151264
421.000000	0.140831
421.500000	0.129337
422.000000	0.122539
422.500000	0.154837
423.000000	0.154347
423.500000	0.140913
424.000000	0.166800
424.500000	0.140219
425.000000	0.133400
425.500000	0.142791
426.000000	0.121865
426.500000	0.121518
427.000000	0.144179
427.500000	0.129276
428.000000	0.140607
428.500000	0.142914
429.000000	0.124785
429.500000	0.133114
430.000000	0.132461
430.500000	0.116496
431.000000	0.103062
431.500000	0.126336
432.000000	0.100653
432.500000	0.092242
433.000000	0.098673
433.500000	0.119885
434.000000	0.103736
434.500000	0.105961
435.000000	0.091201
435.500000	0.097019
436.000000	0.102491
436.500000	0.086607
437.000000	0.096386
437.500000	0.076951
438.000000	0.104185
438.500000	0.099673
439.000000	0.093508
439.500000	0.084790
440.000000	0.113617
440.500000	0.090159
441.000000	0.110453
441.500000	0.108534
442.000000	0.103430
442.500000	0.131828
443.000000	0.145915
443.500000	0.128827
444.000000	0.135891
444.500000	0.161451
445.000000	0.139851
445.500000	0.141587
446.000000	0.135789
446.500000	0.144853
447.000000	0.163023
447.500000	0.163329
448.000000	0.165861
448.500000	0.154612
449.000000	0.164697
449.500000	0.145180
450.000000	0.175456
450.500000	0.185562
451.000000	0.170945
451.500000	0.154326
452.000000	0.146752
452.500000	0.161165
453.000000	0.144384
453.500000	0.147446
454.000000	0.137789
454.500000	0.137361
455.000000	0.150774
455.500000	0.149467
456.000000	0.119885
456.500000	0.156694
457.000000	0.133522
457.500000	0.126744
458.000000	0.145731
458.500000	0.134788
459.000000	0.137524
459.500000	0.114720
460.000000	0.127541
460.500000	0.134686
461.000000	0.099061
461.500000	0.109963
462.000000	0.109105
462.500000	0.114434
463.000000	0.104246
463.500000	0.118047
464.000000	0.101674
464.500000	0.102817
465.000000	0.101837
465.500000	0.077869
466.000000	0.110432
466.500000	0.101102
467.000000	0.108289
467.500000	0.087281
468.000000	0.105778
468.500000	0.107431
469.000000	0.098183
469.500000	0.103042
470.000000	0.108656
470.500000	0.121314
471.000000	0.166065
471.500000	0.135074
472.000000	0.155143
472.500000	0.182112
473.000000	0.174517
473.500000	0.185848
474.000000	0.199772
474.500000	0.173578
475.000000	0.139504
475.500000	0.161574
476.000000	0.171924
476.500000	0.198302
477.000000	0.174334
477.500000	0.229150
478.000000	0.174517
478.500000	0.172966
479.000000	0.198383
479.500000	0.189033
480.000000	0.189992
480.500000	0.155919
481.000000	0.185358
481.500000	0.146180
482.000000	0.171087
482.500000	0.161757
483.000000	0.156449
483.500000	0.156776
484.000000	0.140995
484.500000	0.167862
485.000000	0.133196
485.500000	0.152856
486.000000	0.119742
486.500000	0.125744
487.000000	0.132400
487.500000	0.140403
488.000000	0.111943
488.500000	0.108023
489.000000	0.097815
489.500000	0.130705
490.000000	0.092752
490.500000	0.102470
491.000000	0.114760
491.500000	0.100653
492.000000	0.101756
492.500000	0.108860
493.000000	0.088261
493.500000	0.078523
494.000000	0.099632
494.500000	0.101368
495.000000	0.092732
495.500000	0.095080
496.000000	0.094957
496.500000	0.104369
497.000000	0.098060
497.500000	0.104430
498.000000	0.094406
498.500000	0.167923
499.000000	0.144139
499.500000	0.155041
500.000000	0.166473
500.500000	0.143240
501.000000	0.173394
501.500000	0.183970
502.000000	0.186236
502.500000	0.209694
503.000000	0.189747
503.500000	0.248871
504.000000	0.188032
504.500000	0.188114
505.000000	0.208816
505.500000	0.200200
506.000000	0.225414
506.500000	0.219146
507.000000	0.184705
507.500000	0.176008
508.000000	0.177110
508.500000	0.185113
509.000000	0.209142
509.500000	0.192422
510.000000	0.176681
510.500000	0.176702
511.000000	0.204549
511.500000	0.171149
512.000000	0.179499
512.500000	0.174252
513.000000	0.155980
513.500000	0.171353
514.000000	0.130378
514.500000	0.127051
515.000000	0.138239
515.500000	0.117741
516.000000	0.121171
516.500000	0.117966
517.000000	0.121089
517.500000	0.093753
518.000000	0.114883
518.500000	0.123151
519.000000	0.091731
519.500000	0.121620
520.000000	0.108493
520.500000	0.111392
521.000000	0.115842
521.500000	0.101123
522.000000	0.100306
522.500000	0.114536
523.000000	0.099775
523.500000	0.091711
524.000000	0.081217
524.500000	0.080115
525.000000	0.100755
525.500000	0.123600
526.000000	0.154163
526.500000	0.118211
527.000000	0.142730
527.500000	0.151366
528.000000	0.143159
528.500000	0.188788
529.000000	0.200874
529.500000	0.189911
530.000000	0.194688
530.500000	0.187849
531.000000	0.197301
531.500000	0.221739
532.000000	0.185460
532.500000	0.227802
533.000000	0.227047
533.500000	0.197383
534.000000	0.205018
534.500000	0.205059
535.000000	0.210837
535.500000	0.196505
536.000000	0.184929
536.500000	0.190870
537.000000	0.208693
537.500000	0.207672
538.000000	0.197465
538.500000	0.158838
539.000000	0.189870
539.500000	0.182153
540.000000	0.154326
540.500000	0.167086
541.000000	0.151121
541.500000	0.149998
542.000000	0.143812
542.500000	0.144527
543.000000	0.102225
543.500000	0.114577
544.000000	0.138626
544.500000	0.134584
545.000000	0.122008
545.500000	0.093569
546.000000	0.109493
546.500000	0.110841
547.000000	0.100408
547.500000	0.102552
548.000000	0.121620
548.500000	0.090323
549.000000	0.101429
549.500000	0.080584
550.000000	0.090343
550.500000	0.089077
551.000000	0.103450
551.500000	0.099040
552.000000	0.095733
552.500000	0.105022
553.000000	0.124233
553.500000	0.108513
554.000000	0.120518
554.500000	0.126826
555.000000	0.139627
555.500000	0.152815
556.000000	0.166861
556.500000	0.194790
557.000000	0.159022
557.500000	0.199424
558.000000	0.200506
558.500000	0.158675
559.000000	0.174885
559.500000	0.178539
560.000000	0.235132
560.500000	0.216962
561.000000	0.180193
561.500000	0.209040
562.000000	0.206202
562.500000	0.173844
563.000000	0.199261
563.500000	0.193892
564.000000	0.197117
564.500000	0.218044
565.000000	0.205488
565.500000	0.204059
566.000000	0.183561
566.500000	0.182826
567.000000	0.187563
567.500000	0.174497
568.000000	0.173578
568.500000	0.167168
569.000000	0.164432
569.500000	0.179376
570.000000	0.134564
570.500000	0.165065
571.000000	0.138688
571.500000	0.132359
572.000000	0.116986
572.500000	0.136524
573.000000	0.145588
573.500000	0.126316
574.000000	0.120314
574.500000	0.122886
575.000000	0.110677
575.500000	0.102552
576.000000	0.089057
576.500000	0.125560
577.000000	0.112106
577.500000	0.101184
578.000000	0.116843
578.500000	0.094141
579.000000	0.088342
579.500000	0.100041
580.000000	0.106022
580.500000	0.081769
581.000000	0.130766
581.500000	0.122927
582.000000	0.128459
582.500000	0.115373
583.000000	0.146139
583.500000	0.139851
584.000000	0.158389
584.500000	0.160920
585.000000	0.148079
585.500000	0.163023
586.000000	0.173680
586.500000	0.166473
587.000000	0.166984
587.500000	0.206978
588.000000	0.190054
588.500000	0.197893
589.000000	0.179887
589.500000	0.184398
590.000000	0.184725
590.500000	0.178049
591.000000	0.186930
591.500000	0.181969
592.000000	0.170291
592.500000	0.188910
593.000000	0.187767
593.500000	0.180070
594.000000	0.161410
594.500000	0.158083
595.000000	0.149773
595.500000	0.153122
596.000000	0.154571
596.500000	0.155081
597.000000	0.138667
597.500000	0.118517
598.000000	0.132828
598.500000	0.132788
599.000000	0.133931
599.500000	0.130297
600.000000	0.113719
600.500000	0.123417
601.000000	0.113556
601.500000	0.143097
602.000000	0.124131
602.500000	0.110126
603.000000	0.098081
603.500000	0.107554
604.000000	0.097509
604.500000	0.093896
605.000000	0.093059
605.500000	0.116006
606.000000	0.102552
606.500000	0.096570
607.000000	0.100245
607.500000	0.123008
608.000000	0.110861
608.500000	0.099367
609.000000	0.118741
609.500000	0.111596
610.000000	0.117884
610.500000	0.123805
611.000000	0.133625
611.500000	0.148283
612.000000	0.153346
612.500000	0.132318
613.000000	0.114434
613.500000	0.134196
614.000000	0.127398
614.500000	0.135258
615.000000	0.131644
615.500000	0.141995
616.000000	0.124601
616.500000	0.156286
617.000000	0.177906
617.500000	0.147895
618.000000	0.136115
618.500000	0.154592
619.000000	0.137932
619.500000	0.147099
620.000000	0.126499
620.500000	0.152040
621.000000	0.150345
621.500000	0.146976
622.000000	0.130562
622.500000	0.122927
623.000000	0.108207
623.500000	0.126193
624.000000	0.124540
624.500000	0.114128
625.000000	0.128378
625.500000	0.127602
626.000000	0.136524
626.500000	0.139851
627.000000	0.108758
627.500000	0.097346
628.000000	0.134441
628.500000	0.112474
629.000000	0.118109
629.500000	0.090609
630.000000	0.102368
630.500000	0.109003
631.000000	0.098060
631.500000	0.106798
632.000000	0.111841
632.500000	0.104675
633.000000	0.091099
633.500000	0.123723
634.000000	0.124846
634.500000	0.116312
635.000000	0.149100
635.500000	0.193626
636.000000	0.204773
636.500000	0.266919
637.000000	0.318428
637.500000	0.390373
638.000000	0.460746
638.500000	0.531568
639.000000	0.705979
639.500000	0.967199
640.000000	0.526934
640.500000	0.088118
641.000000	0.082769
641.500000	0.098571
642.000000	0.086750
642.500000	0.108187
643.000000	0.110065
643.500000	0.122763
644.000000	0.133277
644.500000	0.149712
645.000000	0.133808
645.500000	0.143914
646.000000	0.152856
646.500000	0.175334
647.000000	0.205937
647.500000	0.226006
648.000000	0.223454
648.500000	0.226353
649.000000	0.232253
649.500000	0.226230
650.000000	0.245278
650.500000	0.240440
651.000000	0.263979
651.500000	0.279577
652.000000	0.269634
652.500000	0.285273
653.000000	0.297216
653.500000	0.289376
654.000000	0.311364
654.500000	0.301809
655.000000	0.280659
655.500000	0.270308
656.000000	0.257834
656.500000	0.279230
657.000000	0.295705
657.500000	0.301156
658.000000	0.297318
658.500000	0.258957
659.000000	0.270716
659.500000	0.294807
660.000000	0.286783
660.500000	0.247381
661.000000	0.236887
661.500000	0.246952
662.000000	0.266429
662.500000	0.236989
663.000000	0.217839
663.500000	0.202609
664.000000	0.171822
664.500000	0.187665
665.000000	0.175130
665.500000	0.141444
666.000000	0.118925
666.500000	0.118946
667.000000	0.134053
667.500000	0.099040
668.000000	0.128112
668.500000	0.104165
669.000000	0.083484
669.500000	0.095120
670.000000	0.087260
670.500000	0.080340
671.000000	0.075909
671.500000	0.087015
672.000000	0.082197
672.500000	0.103430
673.000000	0.092875
673.500000	0.090711
674.000000	0.113331
674.500000	0.088465
675.000000	0.080687
675.500000	0.087526
676.000000	0.092691
676.500000	0.088628
677.000000	0.106676
677.500000	0.129317
678.000000	0.089690
678.500000	0.118394
679.000000	0.134115
679.500000	0.135074
680.000000	0.140198
680.500000	0.143587
681.000000	0.146507
681.500000	0.111616
682.000000	0.133094
682.500000	0.138912
683.000000	0.128929
683.500000	0.141117
684.000000	0.148589
684.500000	0.162921
685.000000	0.163289
685.500000	0.151305
686.000000	0.158634
686.500000	0.145323
687.000000	0.164207
687.500000	0.135135
688.000000	0.157470
688.500000	0.140403
689.000000	0.147487
689.500000	0.141035
690.000000	0.141730
690.500000	0.154653
691.000000	0.153162
691.500000	0.141750
692.000000	0.134707
692.500000	0.126540
693.000000	0.130317
693.500000	0.121048
694.000000	0.139014
694.500000	0.116618
695.000000	0.119395
695.500000	0.141934
696.000000	0.114066
696.500000	0.126744
697.000000	0.106308
697.500000	0.110922
698.000000	0.095794
698.500000	0.108064
699.000000	0.107125
699.500000	0.097203
700.000000	0.100327
700.500000	0.098938
701.000000	0.104879
701.500000	0.092650
702.000000	0.093610
702.500000	0.089710
703.000000	0.109044
703.500000	0.085811
704.000000	0.084423
704.500000	0.105124
705.000000	0.111841
705.500000	0.118149
706.000000	0.094161
706.500000	0.108084
707.000000	0.113944
707.500000	0.149998
708.000000	0.119742
708.500000	0.150018
709.000000	0.171679
709.500000	0.176110
710.000000	0.171516
710.500000	0.182888
711.000000	0.218350
711.500000	0.186277
712.000000	0.191830
712.500000	0.186665
713.000000	0.190584
713.500000	0.192851
714.000000	0.210265
714.500000	0.187420
715.000000	0.175803
715.500000	0.202038
716.000000	0.173823
716.500000	0.186175
717.000000	0.185501
717.500000	0.215165
718.000000	0.181357
718.500000	0.197322
719.000000	0.197750
719.500000	0.172884
720.000000	0.188686
720.500000	0.164963
721.000000	0.161308
721.500000	0.165596
722.000000	0.153448
722.500000	0.143424
723.000000	0.142852
723.500000	0.147099
724.000000	0.131032
724.500000	0.109309
725.000000	0.118129
725.500000	0.137054
726.000000	0.124274
726.500000	0.107676
727.000000	0.120824
727.500000	0.103961
728.000000	0.116639
728.500000	0.101919
729.000000	0.109840
729.500000	0.107819
730.000000	0.103185
730.500000	0.100612
731.000000	0.091119
731.500000	0.093610
732.000000	0.113638
732.500000	0.097530
733.000000	0.104205
733.500000	0.113495
734.000000	0.129664
734.500000	0.133441
735.000000	0.132869
735.500000	0.142118
736.000000	0.134543
736.500000	0.160512
737.000000	0.181091
737.500000	0.182643
738.000000	0.202344
738.500000	0.187992
739.000000	0.205447
739.500000	0.213185
740.000000	0.244012
740.500000	0.220657
741.000000	0.216472
741.500000	0.229007
742.000000	0.203242
742.500000	0.206468
743.000000	0.226496
743.500000	0.229333
744.000000	0.209428
744.500000	0.235234
745.000000	0.221004
745.500000	0.241930
746.000000	0.195137
746.500000	0.232498
747.000000	0.213593
747.500000	0.186297
748.000000	0.207101
748.500000	0.178233
749.000000	0.183480
749.500000	0.181581
750.000000	0.180132
750.500000	0.163064
751.000000	0.145486
751.500000	0.167760
752.000000	0.144261
752.500000	0.159879
753.000000	0.145568
753.500000	0.128521
754.000000	0.145302
754.500000	0.117639
755.000000	0.145037
755.500000	0.107676
756.000000	0.137054
756.500000	0.096223
757.000000	0.110187
757.500000	0.112188
758.000000	0.112168
758.500000	0.097489
759.000000	0.101409
759.500000	0.081462
760.000000	0.098530
760.500000	0.113270
761.000000	0.106370
761.500000	0.099592
762.000000	0.097080
762.500000	0.117741
763.000000	0.134257
763.500000	0.157246
764.000000	0.164983
764.500000	0.160900
765.000000	0.180315
765.500000	0.198057
766.000000	0.212327
766.500000	0.184317
767.000000	0.197791
767.500000	0.226108
768.000000	0.254649
768.500000	0.231273
769.000000	0.236928
769.500000	0.222086
770.000000	0.234376
770.500000	0.261019
771.000000	0.241032
771.500000	0.263836
772.000000	0.241563
772.500000	0.232947
773.000000	0.237132
773.500000	0.224270
774.000000	0.215573
774.500000	0.220289
775.000000	0.214185
775.500000	0.231906
776.000000	0.203181
776.500000	0.194055
777.000000	0.196525
777.500000	0.171006
778.000000	0.183806
778.500000	0.198404
779.000000	0.144955
779.500000	0.157082
780.000000	0.157756
780.500000	0.154061
781.000000	0.144690
781.500000	0.145200
782.000000	0.117292
782.500000	0.118374
783.000000	0.123907
783.500000	0.120497
784.000000	0.126071
784.500000	0.134952
785.000000	0.105430
785.500000	0.106125
786.000000	0.111902
786.500000	0.089649
787.000000	0.090037
787.500000	0.092426
788.000000	0.096570
788.500000	0.106329
789.000000	0.110106
789.500000	0.101184
790.000000	0.109003
790.500000	0.103348
791.000000	0.120456
791.500000	0.124111
792.000000	0.169475
792.500000	0.149120
793.000000	0.194566
793.500000	0.183439
794.000000	0.218391
794.500000	0.199955
795.000000	0.196954
795.500000	0.183806
796.000000	0.232171
796.500000	0.220514
797.000000	0.244931
797.500000	0.228701
798.000000	0.244462
798.500000	0.220575
799.000000	0.235070
799.500000	0.229048
800.000000	0.258263
800.500000	0.238704
801.000000	0.239664
801.500000	0.247789
802.000000	0.201425
802.500000	0.211102
803.000000	0.213634
803.500000	0.213573
804.000000	0.214879
804.500000	0.196770
805.000000	0.215880
805.500000	0.203344
806.000000	0.201670
806.500000	0.184888
807.000000	0.154612
807.500000	0.171455
808.000000	0.167372
808.500000	0.148201
809.000000	0.128174
809.500000	0.110636
810.000000	0.145037
810.500000	0.126989
811.000000	0.121763
811.500000	0.109167
812.000000	0.120232
812.500000	0.110616
813.000000	0.110820
813.500000	0.113413
814.000000	0.094406
814.500000	0.092997
815.000000	0.084974
815.500000	0.104716
816.000000	0.093079
816.500000	0.104757
817.000000	0.102654
817.500000	0.116700
818.000000	0.106737
818.500000	0.126704
819.000000	0.137953
819.500000	0.144261
820.000000	0.149957
820.500000	0.148038
821.000000	0.178886
821.500000	0.192565
822.000000	0.195852
822.500000	0.210653
823.000000	0.179029
823.500000	0.200956
824.000000	0.199179
824.500000	0.224209
825.000000	0.209469
825.500000	0.204345
826.000000	0.200854
826.500000	0.213654
827.000000	0.245094
827.500000	0.217635
828.000000	0.232620
828.500000	0.199976
829.000000	0.224556
829.500000	0.204651
830.000000	0.223495
830.500000	0.207693
831.000000	0.191952
831.500000	0.185848
832.000000	0.174517
832.500000	0.168638
833.000000	0.166249
833.500000	0.181683
834.000000	0.178172
834.500000	0.157838
835.000000	0.148426
835.500000	0.154367
836.000000	0.143853
836.500000	0.136626
837.000000	0.126642
837.500000	0.145343
838.000000	0.130603
838.500000	0.123927
839.000000	0.126418
839.500000	0.124785
840.000000	0.113617
840.500000	0.097366
841.000000	0.095202
841.500000	0.110310
842.000000	0.116516
842.500000	0.083708
843.000000	0.091017
843.500000	0.088914
844.000000	0.095570
844.500000	0.096243
845.000000	0.090731
845.500000	0.081850
846.000000	0.116292
846.500000	0.128909
847.000000	0.129154
847.500000	0.166290
848.000000	0.147466
848.500000	0.150529
849.000000	0.136871
849.500000	0.183684
850.000000	0.206631
850.500000	0.196750
851.000000	0.194504
851.500000	0.179560
852.000000	0.199710
852.500000	0.192810
853.000000	0.185787
853.500000	0.190421
854.000000	0.201997
854.500000	0.203385
855.000000	0.175946
855.500000	0.182745
856.000000	0.194627
856.500000	0.186971
857.000000	0.198506
857.500000	0.207897
858.000000	0.178519
858.500000	0.188277
859.000000	0.150508
859.500000	0.175722
860.000000	0.194055
860.500000	0.157450
861.000000	0.143240
861.500000	0.117251
862.000000	0.135299
862.500000	0.161370
863.000000	0.133114
863.500000	0.153652
864.000000	0.134788
864.500000	0.116945
865.000000	0.114740
865.500000	0.131685
866.000000	0.128806
866.500000	0.097632
867.000000	0.089343
867.500000	0.107737
868.000000	0.092671
868.500000	0.094181
869.000000	0.095794
869.500000	0.093201
870.000000	0.084218
870.500000	0.096243
871.000000	0.078625
871.500000	0.101327
872.000000	0.083198
872.500000	0.104634
873.000000	0.103083
873.500000	0.102981
874.000000	0.116373
874.500000	0.117067
875.000000	0.122763
875.500000	0.126826
876.000000	0.148385
876.500000	0.128786
877.000000	0.150325
877.500000	0.156266
878.000000	0.163125
878.500000	0.176722
879.000000	0.163962
879.500000	0.163513
880.000000	0.179621
880.500000	0.179009
881.000000	0.190891
881.500000	0.178437
882.000000	0.173823
882.500000	0.169332
883.000000	0.175293
883.500000	0.147936
884.000000	0.179642
884.500000	0.153183
885.000000	0.160900
885.500000	0.134257
886.000000	0.158695
886.500000	0.168638
887.000000	0.149324
887.500000	0.148548
888.000000	0.155837
888.500000	0.134707
889.000000	0.123560
889.500000	0.123866
890.000000	0.143506
890.500000	0.127255
891.000000	0.139831
891.500000	0.125724
892.000000	0.105635
892.500000	0.115985
893.000000	0.111351
893.500000	0.100551
894.000000	0.126969
894.500000	0.114352
895.000000	0.108615
895.500000	0.107411
896.000000	0.113903
896.500000	0.105328
897.000000	0.082014
897.500000	0.114230
898.000000	0.120599
898.500000	0.102695
899.000000	0.087832
899.500000	0.081912
900.000000	0.101286
900.500000	0.096305
901.000000	0.102613
901.500000	0.114597
902.000000	0.128031
902.500000	0.116761
903.000000	0.120967
903.500000	0.112617
904.000000	0.153734
904.500000	0.131093
905.000000	0.135033
905.500000	0.161227
906.000000	0.175558
906.500000	0.125540
907.000000	0.126989
907.500000	0.145711
908.000000	0.143935
908.500000	0.130950
909.000000	0.128602
909.500000	0.124050
910.000000	0.160777
910.500000	0.158736
911.000000	0.175967
911.500000	0.156939
912.000000	0.152632
912.500000	0.135197
913.000000	0.143506
913.500000	0.149120
914.000000	0.147426
914.500000	0.133257
915.000000	0.133829
915.500000	0.125397
916.000000	0.123029
916.500000	0.137401
917.000000	0.140586
917.500000	0.129664
918.000000	0.125152
918.500000	0.108636
919.000000	0.100020
919.500000	0.109350
920.000000	0.108044
920.500000	0.117864
921.000000	0.088342
921.500000	0.104287
922.000000	0.098714
922.500000	0.100041
923.000000	0.118047
923.500000	0.108922
924.000000	0.085933
924.500000	0.079115
925.000000	0.084443
925.500000	0.095835
926.000000	0.096243
926.500000	0.093385
927.000000	0.081789
927.500000	0.093793
928.000000	0.091262
928.500000	0.103532
929.000000	0.095447
929.500000	0.102409
930.000000	0.110616
930.500000	0.086852
931.000000	0.124050
931.500000	0.123253
932.000000	0.109575
932.500000	0.123274
933.000000	0.127990
933.500000	0.125969
934.000000	0.124192
934.500000	0.134543
935.000000	0.125969
935.500000	0.132093
936.000000	0.131032
936.500000	0.153714
937.000000	0.135952
937.500000	0.117272
938.000000	0.138320
938.500000	0.136748
939.000000	0.116475
939.500000	0.123213
940.000000	0.125132
940.500000	0.125009
941.000000	0.113535
941.500000	0.112474
942.000000	0.134012
942.500000	0.144098
943.000000	0.110391
943.500000	0.141934
944.000000	0.117966
944.500000	0.118374
945.000000	0.109697
945.500000	0.119966
946.000000	0.096366
946.500000	0.107043
947.000000	0.107676
947.500000	0.107166
948.000000	0.100000
948.500000	0.107942
949.000000	0.092405
949.500000	0.107043
950.000000	0.094018
950.500000	0.095080
951.000000	0.095263
951.500000	0.112882
952.000000	0.085872
952.500000	0.104818
953.000000	0.103389
953.500000	0.104532
954.000000	0.093548
954.500000	0.106635
955.000000	0.109534
955.500000	0.093548
956.000000	0.089261
956.500000	0.077645
957.000000	0.114924
957.500000	0.083075
958.000000	0.088200
958.500000	0.117966
959.000000	0.087832
959.500000	0.100041
960.000000	0.109983
960.500000	0.132195
961.000000	0.110616
961.500000	0.117884
962.000000	0.101817
962.500000	0.106267
963.000000	0.100878
963.500000	0.120334
964.000000	0.116292
964.500000	0.114209
965.000000	0.111882
965.500000	0.099367
966.000000	0.108942
966.500000	0.120048
967.000000	0.112147
967.500000	0.116271
968.000000	0.123519
968.500000	0.115863
969.000000	0.107084
969.500000	0.119293
970.000000	0.118027
970.500000	0.093875
971.000000	0.121110
971.500000	0.130868
972.000000	0.099183
972.500000	0.092324
973.000000	0.114413
973.500000	0.097121
974.000000	0.095059
974.500000	0.109289
975.000000	0.098938
975.500000	0.107288
976.000000	0.094304
976.500000	0.114230
977.000000	0.100755
977.500000	0.095080
978.000000	0.104267
978.500000	0.107758
979.000000	0.092221
979.500000	0.081667
980.000000	0.098816
980.500000	0.097121
981.000000	0.102797
981.500000	0.095815
982.000000	0.089057
982.500000	0.110514
983.000000	0.070213
983.500000	0.085913
984.000000	0.093365
984.500000	0.083729
985.000000	0.089322
985.500000	0.101878
986.000000	0.094814
986.500000	0.099122
987.000000	0.091793
987.500000	0.100367
988.000000	0.095141
988.500000	0.109493
989.000000	0.116700
989.500000	0.093589
990.000000	0.105655
990.500000	0.109309
991.000000	0.100571
991.500000	0.126949
992.000000	0.093998
992.500000	0.115618
993.000000	0.112188
993.500000	0.112433
994.000000	0.100184
994.500000	0.104614
995.000000	0.102756
995.500000	0.102572
996.000000	0.095876
996.500000	0.091650
997.000000	0.091915
997.500000	0.134727
998.000000	0.109330
998.500000	0.095508
999.000000	0.112862
999.500000	0.099183
1000.000000	0.115087
1000.500000	0.097244
1001.000000	0.101347
1001.500000	0.106288
1002.000000	0.113658
1002.500000	0.084382
1003.000000	0.100755
1003.500000	0.092834
1004.000000	0.113331
1004.500000	0.097080
1005.000000	0.089772
1005.500000	0.078604
1006.000000	0.092650
1006.500000	0.081912
1007.000000	0.080421
1007.500000	0.104348
1008.000000	0.091936
1008.500000	0.101061
1009.000000	0.101327
1009.500000	0.087546
1010.000000	0.080789
1010.500000	0.091139
1011.000000	0.091037
1011.500000	0.094100
1012.000000	0.086934
1012.500000	0.099530
1013.000000	0.076501
1013.500000	0.100510
1014.000000	0.091915
1014.500000	0.101204
1015.000000	0.092650
1015.500000	0.103879
1016.000000	0.084137
1016.500000	0.107145
1017.000000	0.110024
1017.500000	0.093181
1018.000000	0.107962
1018.500000	0.115148
1019.000000	0.099632
1019.500000	0.083218
1020.000000	0.094426
1020.500000	0.108125
1021.000000	0.110330
1021.500000	0.085811
1022.000000	0.098857
1022.500000	0.106533
1023.000000	0.082606
1023.500000	0.111229
1024.000000	0.102981
1024.500000	0.108084
1025.000000	0.104675
1025.500000	0.109350
1026.000000	0.106308
1026.500000	0.098428
1027.000000	0.096284
1027.500000	0.096203
1028.000000	0.092671
1028.500000	0.096999
1029.000000	0.092426
1029.500000	0.091813
1030.000000	0.093120
1030.500000	0.093855
1031.000000	0.100857
1031.500000	0.070275
1032.000000	0.097407
1032.500000	0.098162
1033.000000	0.087730
1033.500000	0.080360
1034.000000	0.086525
1034.500000	0.096488
1035.000000	0.097162
1035.500000	0.084668
1036.000000	0.085219
1036.500000	0.088853
1037.000000	0.093957
1037.500000	0.095570
1038.000000	0.100408
1038.500000	0.107002
1039.000000	0.100347
1039.500000	0.088118
1040.000000	0.092466
1040.500000	0.087669
1041.000000	0.079237
1041.500000	0.101409
1042.000000	0.110922
1042.500000	0.104532
1043.000000	0.102286
1043.500000	0.097734
1044.000000	0.097713
1044.500000	0.083177
1045.000000	0.081115
1045.500000	0.095998
1046.000000	0.092262
1046.500000	0.114087
1047.000000	0.093998
1047.500000	0.090935
1048.000000	0.081442
1048.500000	0.100490
1049.000000	0.094488
1049.500000	0.101531
1050.000000	0.108064
1050.500000	0.096080
1051.000000	0.092916
1051.500000	0.089261
1052.000000	0.100531
1052.500000	0.105471
1053.000000	0.089588
1053.500000	0.109799
1054.000000	0.092875
1054.500000	0.093712
1055.000000	0.088138
1055.500000	0.090507
1056.000000	0.108309
1056.500000	0.099939
1057.000000	0.090241
1057.500000	0.088302
1058.000000	0.098938
1058.500000	0.093508
1059.000000	0.087424
1059.500000	0.090037
1060.000000	0.109432
1060.500000	0.095753
1061.000000	0.092834
1061.500000	0.101817
1062.000000	0.107431
1062.500000	0.090445
1063.000000	0.095386
1063.500000	0.090262
1064.000000	0.091017
1064.500000	0.086587
1065.000000	0.075828
1065.500000	0.086791
1066.000000	0.100000
1066.500000	0.101654
1067.000000	0.108922
1067.500000	0.105961
1068.000000	0.096733
1068.500000	0.087893
1069.000000	0.088016
1069.500000	0.093528
1070.000000	0.102184
1070.500000	0.086607
1071.000000	0.102531
1071.500000	0.102736
1072.000000	0.091629
1072.500000	0.107350
1073.000000	0.113188
1073.500000	0.106227
1074.000000	0.085341
1074.500000	0.090445
1075.000000	0.098693
1075.500000	0.110351
1076.000000	0.102960
1076.500000	0.084361
1077.000000	0.110187
1077.500000	0.078829
1078.000000	0.093793
1078.500000	0.098857
1079.000000	0.088914
1079.500000	0.104532
1080.000000	0.104838
1080.500000	0.082361
1081.000000	0.085750
1081.500000	0.083606
1082.000000	0.078931
1082.500000	0.090711
1083.000000	0.104838
1083.500000	0.101429
1084.000000	0.093569
1084.500000	0.111698
1085.000000	0.100755
1085.500000	0.092936
1086.000000	0.116128
1086.500000	0.090343
1087.000000	0.097550
1087.500000	0.076808
1088.000000	0.091997
1088.500000	0.075174
1089.000000	0.087424
1089.500000	0.082810
1090.000000	0.099877
1090.500000	0.101858
1091.000000	0.080646
1091.500000	0.103858
1092.000000	0.084790
1092.500000	0.087383
1093.000000	0.082973
1093.500000	0.077338
1094.000000	0.085056
1094.500000	0.089812
1095.000000	0.109289
1095.500000	0.090486
1096.000000	0.095896
1096.500000	0.084504
1097.000000	0.091344
1097.500000	0.103940
1098.000000	0.093569
1098.500000	0.088261
1099.000000	0.100755
1099.500000	0.076869
1100.000000	0.087995
1100.500000	0.109432
1101.000000	0.105900
1101.500000	0.092875
1102.000000	0.104205
1102.500000	0.086791
1103.000000	0.096672
1103.500000	0.101409
1104.000000	0.095876
1104.500000	0.086975
1105.000000	0.109269
1105.500000	0.096407
1106.000000	0.084953
1106.500000	0.066681
1107.000000	0.098775
1107.500000	0.102062
1108.000000	0.105145
1108.500000	0.105063
1109.000000	0.109697
1109.500000	0.108738
1110.000000	0.083667
1110.500000	0.085546
1111.000000	0.094671
1111.500000	0.090486
1112.000000	0.090772
1112.500000	0.080217
1113.000000	0.100776
1113.500000	0.098510
1114.000000	0.096795
1114.500000	0.087444
1115.000000	0.100082
1115.500000	0.108779
1116.000000	0.093712
1116.500000	0.092405
1117.000000	0.104716
1117.500000	0.084076
1118.000000	0.087832
1118.500000	0.091364
1119.000000	0.108840
1119.500000	0.101470
1120.000000	0.095610
1120.500000	0.080176
1121.000000	0.087179
1121.500000	0.096243
1122.000000	0.086975
1122.500000	0.104777
1123.000000	0.099877
1123.500000	0.086015
1124.000000	0.074072
1124.500000	0.092140
1125.000000	0.099081
1125.500000	0.100551
1126.000000	0.094957
1126.500000	0.091936
1127.000000	0.095733
1127.500000	0.087138
1128.000000	0.097530
1128.500000	0.099265
1129.000000	0.086668
1129.500000	0.097489
1130.000000	0.083790
1130.500000	0.074909
1131.000000	0.083341
1131.500000	0.085933
1132.000000	0.095529
1132.500000	0.087036
1133.000000	0.089384
1133.500000	0.100224
1134.000000	0.099449
1134.500000	0.074092
1135.000000	0.091650
1135.500000	0.099877
1136.000000	0.079012
1136.500000	0.090649
1137.000000	0.079911
1137.500000	0.086505
1138.000000	0.095937
1138.500000	0.089363
1139.000000	0.086811
1139.500000	0.080095
1140.000000	0.098918
1140.500000	0.099061
1141.000000	0.087689
1141.500000	0.086832
1142.000000	0.095406
1142.500000	0.093896
1143.000000	0.079829
1143.500000	0.097897
1144.000000	0.105880
1144.500000	0.098448
1145.000000	0.093344
1145.500000	0.077767
1146.000000	0.110677
1146.500000	0.100000
1147.000000	0.096631
1147.500000	0.084811
1148.000000	0.099694
1148.500000	0.111065
1149.000000	0.089037
1149.500000	0.074868
1150.000000	0.091221
1150.500000	0.104185
1151.000000	0.102388
1151.500000	0.103920
1152.000000	0.100102
1152.500000	0.098326
1153.000000	0.089098
1153.500000	0.090180
1154.000000	0.090323
1154.500000	0.110106
1155.000000	0.093283
1155.500000	0.088914
