0.000000    0.041590
0.500000    0.045061
1.000000    0.047041
1.500000    0.051737
2.000000    0.038508
2.500000    0.054187
3.000000    0.061618
3.500000    0.063844
4.000000    0.049675
4.500000    0.041958
5.000000    0.049900
5.500000    0.083157
6.000000    0.087363
6.500000    0.109963
7.000000    0.074358
7.500000    0.080687
8.000000    0.075440
8.500000    0.090874
9.000000    0.081687
9.500000    0.073541
10.000000   0.078175
10.500000   0.088138
11.000000   0.081217
11.500000   0.096488
12.000000   0.071683
12.500000   0.088812
13.000000   0.074929
13.500000   0.081217
14.000000   0.085954
14.500000   0.076665
15.000000   0.089629
15.500000   0.084504
16.000000   0.072234
16.500000   0.074113
17.000000   0.093263
17.500000   0.095284
18.000000   0.067498
18.500000   0.064824
19.000000   0.093957
19.500000   0.090384
20.000000   0.090404
20.500000   0.084831
21.000000   0.097632
21.500000   0.090364
22.000000   0.083790
22.500000   0.087179
23.000000   0.086321
23.500000   0.072827
24.000000   0.071642
24.500000   0.078298
25.000000   0.084688
25.500000   0.087240
26.000000   0.091895
26.500000   0.072194
27.000000   0.087322
27.500000   0.081585
28.000000   0.082095
28.500000   0.081013
29.000000   0.082544
29.500000   0.079911
30.000000   0.087260
30.500000   0.072602
31.000000   0.095141
31.500000   0.074644
32.000000   0.069315
32.500000   0.074766
33.000000   0.079074
33.500000   0.073847
34.000000   0.099653
34.500000   0.084994
35.000000   0.081912
35.500000   0.083075
36.000000   0.084729
36.500000   0.068151
37.000000   0.084443
37.500000   0.079564
38.000000   0.082646
38.500000   0.094855
39.000000   0.088404
39.500000   0.074337
40.000000   0.090037
40.500000   0.103818
41.000000   0.087689
41.500000   0.089914
42.000000   0.079135
42.500000   0.084851
43.000000   0.106063
43.500000   0.089812
44.000000   0.106941
44.500000   0.075195
45.000000   0.082299
45.500000   0.087771
46.000000   0.078155
46.500000   0.086301
47.000000   0.092630
47.500000   0.100551
48.000000   0.097999
48.500000   0.083484
49.000000   0.077481
49.500000   0.078992
50.000000   0.080319
50.500000   0.079400
51.000000   0.085239
51.500000   0.110044
52.000000   0.076461
52.500000   0.083341
53.000000   0.092793
53.500000   0.104308
54.000000   0.080074
54.500000   0.096039
55.000000   0.090323
55.500000   0.092466
56.000000   0.078420
56.500000   0.066661
57.000000   0.080299
57.500000   0.087669
58.000000   0.087383
58.500000   0.077808
59.000000   0.095835
59.500000   0.078808
60.000000   0.083259
60.500000   0.088751
61.000000   0.083851
61.500000   0.090262
62.000000   0.098877
62.500000   0.076052
63.000000   0.069948
63.500000   0.080972
64.000000   0.070275
64.500000   0.099122
65.000000   0.095080
65.500000   0.100735
66.000000   0.068274
66.500000   0.076787
67.000000   0.066722
67.500000   0.093487
68.000000   0.087955
68.500000   0.087608
69.000000   0.064374
69.500000   0.083075
70.000000   0.080932
70.500000   0.091915
71.000000   0.077788
71.500000   0.080156
72.000000   0.061312
72.500000   0.071724
73.000000   0.068743
73.500000   0.073602
74.000000   0.085872
74.500000   0.073684
75.000000   0.082830
75.500000   0.084484
76.000000   0.082340
76.500000   0.097693
77.000000   0.077788
77.500000   0.090894
78.000000   0.077032
78.500000   0.084014
79.000000   0.075419
79.500000   0.071438
80.000000   0.074011
80.500000   0.078584
81.000000   0.094937
81.500000   0.095672
82.000000   0.075705
82.500000   0.081748
83.000000   0.081973
83.500000   0.092385
84.000000   0.082912
84.500000   0.069009
85.000000   0.082014
85.500000   0.081626
86.000000   0.080258
86.500000   0.078073
87.000000   0.085403
87.500000   0.087546
88.000000   0.075623
88.500000   0.067233
89.000000   0.102511
89.500000   0.072622
90.000000   0.092303
90.500000   0.084994
91.000000   0.091507
91.500000   0.088383
92.000000   0.085872
92.500000   0.093793
93.000000   0.073949
93.500000   0.086015
94.000000   0.093671
94.500000   0.086015
95.000000   0.070050
95.500000   0.070050
96.000000   0.088526
96.500000   0.094896
97.000000   0.080217
97.500000   0.081912
98.000000   0.080095
98.500000   0.088547
99.000000   0.075481
99.500000   0.076318
100.000000  0.079115
100.500000  0.074460
101.000000  0.108758
101.500000  0.078808
102.000000  0.090997
102.500000  0.108187
103.000000  0.086076
103.500000  0.087301
104.000000  0.076889
104.500000  0.081809
105.000000  0.077665
105.500000  0.068376
106.000000  0.066559
106.500000  0.076093
107.000000  0.070989
107.500000  0.070234
108.000000  0.079360
108.500000  0.081769
109.000000  0.066008
109.500000  0.077298
110.000000  0.071050
110.500000  0.065640
111.000000  0.062721
111.500000  0.091956
112.000000  0.073847
112.500000  0.076073
113.000000  0.071479
113.500000  0.079931
114.000000  0.074460
114.500000  0.090547
115.000000  0.068233
115.500000  0.073031
116.000000  0.069397
116.500000  0.074889
117.000000  0.083014
117.500000  0.069703
118.000000  0.060005
118.500000  0.059577
119.000000  0.055820
119.500000  0.077808
120.000000  0.074501
120.500000  0.073112
121.000000  0.063680
121.500000  0.067947
122.000000  0.054269
122.500000  0.080952
123.000000  0.069070
123.500000  0.072684
124.000000  0.077114
124.500000  0.068743
125.000000  0.051186
125.500000  0.069274
126.000000  0.080442
126.500000  0.084443
127.000000  0.086035
127.500000  0.095468
128.000000  0.084688
128.500000  0.082871
129.000000  0.102184
129.500000  0.100755
130.000000  0.110228
130.500000  0.089567
131.000000  0.089547
131.500000  0.114332
132.000000  0.114209
132.500000  0.103164
133.000000  0.127439
133.500000  0.123355
134.000000  0.103205
134.500000  0.103940
135.000000  0.132216
135.500000  0.117966
136.000000  0.123070
136.500000  0.098673
137.000000  0.140280
137.500000  0.111780
138.000000  0.105757
138.500000  0.096529
139.000000  0.106451
139.500000  0.108289
140.000000  0.129337
140.500000  0.114822
141.000000  0.107942
141.500000  0.129501
142.000000  0.115659
142.500000  0.108248
143.000000  0.106431
143.500000  0.096631
144.000000  0.107390
144.500000  0.092548
145.000000  0.091956
145.500000  0.092630
146.000000  0.087669
146.500000  0.087689
147.000000  0.090609
147.500000  0.111086
148.000000  0.110024
148.500000  0.096488
149.000000  0.093161
149.500000  0.084096
150.000000  0.083218
150.500000  0.067131
151.000000  0.059781
151.500000  0.073092
152.000000  0.060720
152.500000  0.071622
153.000000  0.092956
153.500000  0.093712
154.000000  0.090813
154.500000  0.077563
155.000000  0.086015
155.500000  0.090772
156.000000  0.114720
156.500000  0.107880
157.000000  0.109697
157.500000  0.117312
158.000000  0.118660
158.500000  0.125948
159.000000  0.132563
159.500000  0.139178
160.000000  0.131583
160.500000  0.139811
161.000000  0.143159
161.500000  0.146548
162.000000  0.148793
162.500000  0.167311
163.000000  0.166861
163.500000  0.187665
164.000000  0.213981
164.500000  0.186848
165.000000  0.183092
165.500000  0.170271
166.000000  0.181336
166.500000  0.192075
167.000000  0.150427
167.500000  0.164759
168.000000  0.162860
168.500000  0.204916
169.000000  0.191993
169.500000  0.212470
170.000000  0.181071
170.500000  0.172517
171.000000  0.176926
171.500000  0.178070
172.000000  0.147446
172.500000  0.162452
173.000000  0.152570
173.500000  0.166943
174.000000  0.155204
174.500000  0.155408
175.000000  0.145343
175.500000  0.149508
176.000000  0.143873
176.500000  0.140198
177.000000  0.121783
177.500000  0.146037
178.000000  0.133747
178.500000  0.146037
179.000000  0.127418
179.500000  0.118884
180.000000  0.117333
180.500000  0.125009
181.000000  0.123049
181.500000  0.110065
182.000000  0.102736
182.500000  0.118721
183.000000  0.110575
183.500000  0.094243
184.000000  0.114352
184.500000  0.103899
185.000000  0.097325
185.500000  0.123886
186.000000  0.139178
186.500000  0.148487
187.000000  0.148691
187.500000  0.162002
188.000000  0.147834
188.500000  0.172374
189.000000  0.185093
189.500000  0.189707
190.000000  0.203834
190.500000  0.191952
191.000000  0.224903
191.500000  0.192708
192.000000  0.217084
192.500000  0.227680
193.000000  0.249157
193.500000  0.259426
194.000000  0.270451
194.500000  0.246074
195.000000  0.282578
195.500000  0.269205
196.000000  0.303830
196.500000  0.296175
197.000000  0.306403
197.500000  0.245360
198.000000  0.251464
198.500000  0.286967
199.000000  0.315917
199.500000  0.293031
200.000000  0.306791
200.500000  0.267245
201.000000  0.294725
201.500000  0.267756
202.000000  0.297277
202.500000  0.281067
203.000000  0.256936
203.500000  0.282067
204.000000  0.266143
204.500000  0.274166
205.000000  0.250035
205.500000  0.264714
206.000000  0.226741
206.500000  0.222065
207.000000  0.263999
207.500000  0.260325
208.000000  0.213328
208.500000  0.215655
209.000000  0.240787
209.500000  0.216329
210.000000  0.209122
210.500000  0.231008
211.000000  0.229783
211.500000  0.200384
212.000000  0.198302
212.500000  0.179682
213.000000  0.185011
213.500000  0.205876
214.000000  0.177478
214.500000  0.180315
215.000000  0.166576
215.500000  0.132400
216.000000  0.133155
216.500000  0.136319
217.000000  0.135809
217.500000  0.133400
218.000000  0.148753
218.500000  0.172762
219.000000  0.167555
219.500000  0.191034
220.000000  0.208979
220.500000  0.239092
221.000000  0.209081
221.500000  0.235744
222.000000  0.212348
222.500000  0.247871
223.000000  0.281475
223.500000  0.260100
224.000000  0.300094
224.500000  0.305892
225.000000  0.293684
225.500000  0.337026
226.000000  0.322919
226.500000  0.369365
227.000000  0.347112
227.500000  0.360382
228.000000  0.412197
228.500000  0.391414
229.000000  0.408053
229.500000  0.400805
230.000000  0.390148
230.500000  0.419486
231.000000  0.418444
231.500000  0.468647
232.000000  0.426631
232.500000  0.451640
233.000000  0.432592
233.500000  0.474179
234.000000  0.421119
234.500000  0.444679
235.000000  0.463502
235.500000  0.461869
236.000000  0.442065
236.500000  0.436186
237.000000  0.427938
237.500000  0.419771
238.000000  0.432858
238.500000  0.387065
239.000000  0.407052
239.500000  0.389903
240.000000  0.390781
240.500000  0.368099
241.000000  0.382778
241.500000  0.291704
242.000000  0.355544
242.500000  0.344152
243.000000  0.361607
243.500000  0.359606
244.000000  0.329738
244.500000  0.314038
245.000000  0.313283
245.500000  0.295909
246.000000  0.278270
246.500000  0.291601
247.000000  0.257099
247.500000  0.287763
248.000000  0.255200
248.500000  0.244114
249.000000  0.248443
249.500000  0.202589
250.000000  0.215308
250.500000  0.186440
251.000000  0.203222
251.500000  0.202528
252.000000  0.217492
252.500000  0.202834
253.000000  0.237541
253.500000  0.267164
254.000000  0.262264
254.500000  0.259773
255.000000  0.260141
255.500000  0.293031
256.000000  0.292663
256.500000  0.349153
257.000000  0.368446
257.500000  0.356973
258.000000  0.360913
258.500000  0.402826
259.000000  0.475772
259.500000  0.454192
260.000000  0.472546
260.500000  0.528914
261.000000  0.545389
261.500000  0.571032
262.000000  0.553025
262.500000  0.599103
263.000000  0.595959
263.500000  0.556251
264.000000  0.627175
264.500000  0.627828
265.000000  0.576033
265.500000  0.650000
266.000000  0.652633
266.500000  0.673723
267.000000  0.600063
267.500000  0.702999
268.000000  0.654266
268.500000  0.697221
269.000000  0.692444
269.500000  0.701447
270.000000  0.716024
270.500000  0.726579
271.000000  0.728723
271.500000  0.663372
272.000000  0.650081
272.500000  0.630972
273.000000  0.649408
273.500000  0.652449
274.000000  0.600757
274.500000  0.604697
275.000000  0.605657
275.500000  0.594550
276.000000  0.579382
276.500000  0.543062
277.000000  0.559537
277.500000  0.561865
278.000000  0.540102
278.500000  0.507334
279.000000  0.551535
279.500000  0.551922
280.000000  0.490063
280.500000  0.483223
281.000000  0.481080
281.500000  0.465850
282.000000  0.477140
282.500000  0.459827
283.000000  0.465748
283.500000  0.364874
284.000000  0.409706
284.500000  0.390209
285.000000  0.405950
285.500000  0.387474
286.000000  0.345744
286.500000  0.326900
287.000000  0.325839
287.500000  0.337700
288.000000  0.321817
288.500000  0.302422
289.000000  0.334393
289.500000  0.301054
290.000000  0.303116
290.500000  0.347316
291.000000  0.351644
291.500000  0.357034
292.000000  0.362954
292.500000  0.389250
293.000000  0.448374
293.500000  0.479712
294.000000  0.516093
294.500000  0.521768
295.000000  0.579177
295.500000  0.624990
296.000000  0.684339
296.500000  0.728396
297.000000  0.757141
297.500000  0.794339
298.000000  0.777108
298.500000  0.811631
299.000000  0.811937
299.500000  0.833557
300.000000  0.832945
300.500000  0.869101
301.000000  0.893110
301.500000  0.872613
302.000000  0.876124
302.500000  0.930205
303.000000  0.949662
303.500000  1.001130
304.000000  0.962217
304.500000  0.998986
305.000000  1.009561
305.500000  1.059621
306.000000  1.002212
306.500000  1.021280
307.000000  0.920916
307.500000  0.996148
308.000000  0.987124
308.500000  0.901562
309.000000  0.870939
309.500000  0.870898
310.000000  0.885515
310.500000  0.845092
311.000000  0.869877
311.500000  0.815040
312.000000  0.812754
312.500000  0.721393
313.000000  0.737665
313.500000  0.722925
314.000000  0.741503
314.500000  0.683053
315.000000  0.633055
315.500000  0.635606
316.000000  0.609413
316.500000  0.546880
317.000000  0.563233
317.500000  0.508968
318.000000  0.539101
318.500000  0.486592
319.000000  0.464033
319.500000  0.410788
320.000000  0.427795
320.500000  0.425917
321.000000  0.409809
321.500000  0.454927
322.000000  0.415382
322.500000  0.479651
323.000000  0.446332
323.500000  0.518216
324.000000  0.528689
324.500000  0.562579
325.000000  0.653695
325.500000  0.735644
326.000000  0.769105
326.500000  0.828004
327.000000  0.930267
327.500000  0.971609
328.000000  1.024914
328.500000  1.099697
329.000000  1.117152
329.500000  1.109986
330.000000  1.132342
330.500000  1.175072
331.000000  1.226744
331.500000  1.232277
332.000000  1.303752
332.500000  1.236829
333.000000  1.324841
333.500000  1.343583
334.000000  1.340439
334.500000  1.321861
335.000000  1.349789
335.500000  1.352015
336.000000  1.337030
336.500000  1.351647
337.000000  1.280437
337.500000  1.358609
338.000000  1.288359
338.500000  1.254366
339.000000  1.190955
339.500000  1.145428
340.000000  1.093307
340.500000  1.112824
341.000000  1.087100
341.500000  1.066174
342.000000  1.018054
342.500000  0.922692
343.000000  0.955051
343.500000  0.968628
344.000000  0.880371
344.500000  0.883739
345.000000  0.879329
345.500000  0.831577
346.000000  0.788418
346.500000  0.734276
347.000000  0.691668
347.500000  0.648285
348.000000  0.582811
348.500000  0.546451
349.000000  0.573583
349.500000  0.506273
350.000000  0.567520
350.500000  0.589222
351.000000  0.604207
351.500000  0.619927
352.000000  0.656186
352.500000  0.671640
353.000000  0.810937
353.500000  0.934309
354.000000  0.963095
354.500000  1.080384
355.000000  1.097921
355.500000  1.181625
356.000000  1.260226
356.500000  1.348524
357.000000  1.369470
357.500000  1.448112
358.000000  1.453563
358.500000  1.511952
359.000000  1.546944
359.500000  1.559418
360.000000  1.629362
360.500000  1.605149
361.000000  1.649064
361.500000  1.692692
362.000000  1.693243
362.500000  1.745181
363.000000  1.638958
363.500000  1.697265
364.000000  1.683974
364.500000  1.638223
365.000000  1.613744
365.500000  1.644082
366.000000  1.544270
366.500000  1.549557
367.000000  1.452991
367.500000  1.449255
368.000000  1.424511
368.500000  1.385742
369.000000  1.367612
369.500000  1.264901
370.000000  1.246772
370.500000  1.261287
371.000000  1.215331
371.500000  1.178808
372.000000  1.110946
372.500000  1.055783
373.000000  1.053394
373.500000  0.994944
374.000000  0.993433
374.500000  0.881453
375.000000  0.913342
375.500000  0.827126
376.000000  0.705081
376.500000  0.677295
377.000000  0.685503
377.500000  0.697242
378.000000  0.660514
378.500000  0.670946
379.000000  0.651122
379.500000  0.734010
380.000000  0.796707
380.500000  0.892028
381.000000  0.988084
381.500000  1.059274
382.000000  1.146796
382.500000  1.155330
383.000000  1.263186
383.500000  1.403360
384.000000  1.536675
384.500000  1.551844
385.000000  1.659251
385.500000  1.646491
386.000000  1.707146
386.500000  1.699348
387.000000  1.765086
387.500000  1.784624
388.000000  1.854487
388.500000  1.891031
389.000000  1.972081
389.500000  2.028817
390.000000  2.157231
390.500000  1.990251
391.000000  1.981554
391.500000  2.017486
392.000000  2.033553
392.500000  2.068321
393.000000  2.017853
393.500000  1.896727
394.000000  1.891868
394.500000  1.935170
395.000000  1.792892
395.500000  1.727338
396.000000  1.747814
396.500000  1.576445
397.000000  1.605844
397.500000  1.474427
398.000000  1.597106
398.500000  1.496844
399.000000  1.409281
399.500000  1.352525
400.000000  1.331640
400.500000  1.257347
401.000000  1.199999
401.500000  1.224478
402.000000  1.164027
402.500000  1.087162
403.000000  0.987962
403.500000  0.922937
404.000000  0.821900
404.500000  0.794094
405.000000  0.776087
405.500000  0.721434
406.000000  0.748587
406.500000  0.767615
407.000000  0.813713
407.500000  0.904339
408.000000  0.936289
408.500000  1.036286
409.000000  1.094736
409.500000  1.171703
410.000000  1.284561
410.500000  1.380883
411.000000  1.404361
411.500000  1.539349
412.000000  1.690569
412.500000  1.714088
413.000000  1.726113
413.500000  1.854732
414.000000  1.954462
414.500000  2.056235
415.000000  1.899360
415.500000  2.004154
416.000000  2.118993
416.500000  2.091595
417.000000  2.170155
417.500000  2.188468
418.000000  2.232790
418.500000  2.262556
419.000000  2.243202
419.500000  2.263679
420.000000  2.243917
420.500000  2.125403
421.000000  2.146779
421.500000  2.064544
422.000000  2.053826
422.500000  2.008727
423.000000  1.876760
423.500000  1.898605
424.000000  1.749754
424.500000  1.749611
425.000000  1.627035
425.500000  1.592675
426.000000  1.685934
426.500000  1.528876
427.000000  1.492169
427.500000  1.487126
428.000000  1.429247
428.500000  1.351484
429.000000  1.357078
429.500000  1.249793
430.000000  1.272761
430.500000  1.139895
431.000000  1.107394
431.500000  1.039899
432.000000  1.011807
432.500000  0.896785
433.000000  0.781885
433.500000  0.843153
434.000000  0.729539
434.500000  0.798320
435.000000  0.793604
435.500000  0.787663
436.000000  0.863813
436.500000  0.942720
437.000000  0.985328
437.500000  1.044799
438.000000  1.171866
438.500000  1.288889
439.000000  1.394092
439.500000  1.448091
440.000000  1.524609
440.500000  1.673910
441.000000  1.666172
441.500000  1.740342
442.000000  1.764392
442.500000  1.844136
443.000000  1.885335
443.500000  1.834969
444.000000  1.955667
444.500000  2.056214
445.000000  2.058052
445.500000  2.075814
446.000000  2.142308
446.500000  2.082551
447.000000  2.202534
447.500000  2.229911
448.000000  2.190142
448.500000  2.150168
449.000000  2.075834
449.500000  2.071894
450.000000  1.959954
450.500000  1.890806
451.000000  1.915693
451.500000  1.868410
452.000000  1.779398
452.500000  1.710229
453.000000  1.637692
453.500000  1.707677
454.000000  1.634977
454.500000  1.525161
455.000000  1.532388
455.500000  1.483696
456.000000  1.379106
456.500000  1.348993
457.000000  1.310734
457.500000  1.144816
458.000000  1.222497
458.500000  1.136506
459.000000  1.009561
459.500000  0.972895
460.000000  0.897030
460.500000  0.846093
461.000000  0.765757
461.500000  0.762694
462.000000  0.786377
462.500000  0.774678
463.000000  0.697915
463.500000  0.760020
464.000000  0.780191
464.500000  0.862548
465.000000  0.866733
465.500000  0.940148
466.000000  0.991963
466.500000  1.141079
467.000000  1.168069
467.500000  1.263002
468.000000  1.308999
468.500000  1.337009
469.000000  1.402135
469.500000  1.517770
470.000000  1.615643
470.500000  1.509359
471.000000  1.591838
471.500000  1.629934
472.000000  1.658598
472.500000  1.648553
473.000000  1.681872
473.500000  1.713026
474.000000  1.736157
474.500000  1.811205
475.000000  1.745589
475.500000  1.765372
476.000000  1.780847
476.500000  1.759227
477.000000  1.705227
477.500000  1.743160
478.000000  1.655413
478.500000  1.572117
479.000000  1.676809
479.500000  1.464342
480.000000  1.430105
480.500000  1.408587
481.000000  1.383373
481.500000  1.329149
482.000000  1.293667
482.500000  1.284071
483.000000  1.281131
483.500000  1.226336
484.000000  1.198774
484.500000  1.178767
485.000000  1.105944
485.500000  1.023832
486.000000  1.081200
486.500000  0.990166
487.000000  0.885740
487.500000  0.900521
488.000000  0.836558
488.500000  0.758693
489.000000  0.731887
489.500000  0.721271
490.000000  0.672845
490.500000  0.632830
491.000000  0.586629
491.500000  0.633810
492.000000  0.599532
492.500000  0.601921
493.000000  0.590896
493.500000  0.670660
494.000000  0.635464
494.500000  0.671150
495.000000  0.689749
495.500000  0.743565
496.000000  0.870469
496.500000  0.872756
497.000000  0.865671
497.500000  0.877533
498.000000  0.946048
498.500000  0.920181
499.000000  1.045228
499.500000  1.014849
500.000000  1.040634
500.500000  1.068726
501.000000  1.072871
501.500000  1.029099
502.000000  1.083303
502.500000  1.076709
503.000000  1.110844
503.500000  1.170233
504.000000  1.167212
504.500000  1.175194
505.000000  1.149715
505.500000  1.203164
506.000000  1.149307
506.500000  1.189546
507.000000  1.232256
507.500000  1.248752
508.000000  1.203347
508.500000  1.204532
509.000000  1.194099
509.500000  1.224559
510.000000  1.236850
510.500000  1.293442
511.000000  1.251712
511.500000  1.197937
512.000000  1.285582
512.500000  1.261104
513.000000  1.310408
513.500000  1.357425
514.000000  1.384231
514.500000  1.308448
515.000000  1.289686
515.500000  1.362386
516.000000  1.311000
516.500000  1.456727
517.000000  1.409893
517.500000  1.411527
518.000000  1.517872
518.500000  1.681504
519.000000  1.875597
519.500000  2.114134
520.000000  2.483087
520.500000  2.623343
521.000000  2.833972
521.500000  3.223565
522.000000  0.338803
522.500000  0.044510
523.000000  0.054350
523.500000  0.064354
524.000000  0.077563
524.500000  0.100633
525.000000  0.121130
525.500000  0.146834
526.000000  0.163452
526.500000  0.180050
527.000000  0.225842
527.500000  0.208407
528.000000  0.279924
528.500000  0.302953
529.000000  0.357013
529.500000  0.344499
530.000000  0.345764
530.500000  0.360811
531.000000  0.377572
531.500000  0.384432
532.000000  0.397192
532.500000  0.406379
533.000000  0.456295
533.500000  0.428162
534.000000  0.442902
534.500000  0.452804
535.000000  0.454682
535.500000  0.447006
536.000000  0.509233
536.500000  0.546002
537.000000  0.504170
537.500000  0.544042
538.000000  0.520401
538.500000  0.518992
539.000000  0.528587
539.500000  0.506436
540.000000  0.462767
540.500000  0.440534
541.000000  0.434471
541.500000  0.455519
542.000000  0.456867
542.500000  0.427407
543.000000  0.394435
543.500000  0.347030
544.000000  0.388801
544.500000  0.362199
545.000000  0.371529
545.500000  0.389229
546.000000  0.383084
546.500000  0.334168
547.000000  0.312793
547.500000  0.325879
548.000000  0.311160
548.500000  0.279332
549.000000  0.283068
549.500000  0.252444
550.000000  0.224822
550.500000  0.197526
551.000000  0.167188
551.500000  0.186338
552.000000  0.153060
552.500000  0.146425
553.000000  0.130868
553.500000  0.100490
554.000000  0.100143
554.500000  0.068315
555.000000  0.053554
555.500000  0.056208
556.000000  0.424059
556.500000  3.665790
557.000000  3.171587
557.500000  2.921433
558.000000  2.760210
558.500000  2.556481
559.000000  2.324926
559.500000  2.292057
560.000000  2.114685
560.500000  2.036860
561.000000  1.955055
561.500000  1.939620
562.000000  1.928514
562.500000  1.884804
563.000000  1.897176
563.500000  1.784869
564.000000  1.773130
564.500000  1.757757
565.000000  1.801834
565.500000  1.703839
566.000000  1.702532
566.500000  1.589307
567.000000  1.614602
567.500000  1.605251
568.000000  1.510706
568.500000  1.485146
569.000000  1.482573
569.500000  1.399298
570.000000  1.479817
570.500000  1.351423
571.000000  1.405279
571.500000  1.324637
572.000000  1.320166
572.500000  1.249854
573.000000  1.268535
573.500000  1.260042
574.000000  1.198733
574.500000  1.090326
575.000000  1.057436
575.500000  1.012726
576.000000  1.062724
576.500000  1.014972
577.000000  1.004070
577.500000  1.044248
578.000000  0.980571
578.500000  0.926469
579.000000  0.956725
579.500000  0.856974
580.000000  0.800157
580.500000  0.775413
581.000000  0.799218
581.500000  0.737338
582.000000  0.733847
582.500000  0.745239
583.000000  0.677275
583.500000  0.669007
584.000000  0.659881
584.500000  0.639771
585.000000  0.611802
585.500000  0.589508
586.000000  0.577891
586.500000  0.584975
587.000000  0.610495
587.500000  0.614885
588.000000  0.695751
588.500000  0.762388
589.000000  0.839845
589.500000  0.954561
590.000000  1.038797
590.500000  1.093735
591.000000  1.157616
591.500000  1.263308
592.000000  1.369940
592.500000  1.408628
593.000000  1.411200
593.500000  1.443293
594.000000  1.548026
594.500000  1.495905
595.000000  1.759594
595.500000  1.723867
596.000000  1.827987
596.500000  1.810307
597.000000  1.911549
597.500000  1.944765
598.000000  1.929780
598.500000  1.948562
599.000000  1.966671
599.500000  1.956524
600.000000  2.059420
600.500000  1.967488
601.000000  1.993559
601.500000  1.926513
602.000000  1.993273
602.500000  1.910589
603.000000  1.873759
603.500000  1.857263
604.000000  1.728154
604.500000  1.660639
605.000000  1.712638
605.500000  1.637018
606.000000  1.628342
606.500000  1.583550
607.000000  1.484533
607.500000  1.433065
608.000000  1.366387
608.500000  1.258490
609.000000  1.291503
609.500000  1.278886
610.000000  1.233175
610.500000  1.197447
611.000000  1.126033
611.500000  1.065378
612.000000  0.994801
612.500000  0.953030
613.000000  0.867121
613.500000  0.848624
614.000000  0.791174
614.500000  0.735439
615.000000  0.761469
615.500000  0.779680
616.000000  0.838233
616.500000  0.832741
617.000000  0.862037
617.500000  1.082139
618.000000  1.069604
618.500000  1.152247
619.000000  1.275966
619.500000  1.426593
620.000000  1.541269
620.500000  1.742486
621.000000  1.826048
621.500000  1.859203
622.000000  2.021569
622.500000  1.979329
623.000000  2.056378
623.500000  2.108009
624.000000  2.123668
624.500000  2.260698
625.000000  2.289587
625.500000  2.339993
626.000000  2.374822
626.500000  2.356856
627.000000  2.401914
627.500000  2.433170
628.000000  2.528022
628.500000  2.444399
629.000000  2.528634
629.500000  2.403159
630.000000  2.512526
630.500000  2.413061
631.000000  2.397320
631.500000  2.258636
632.000000  2.310492
632.500000  2.272213
633.000000  2.211496
633.500000  2.091901
634.000000  2.042638
634.500000  1.944826
635.000000  1.984759
635.500000  1.872350
636.000000  1.791810
636.500000  1.733605
637.000000  1.605251
637.500000  1.636120
638.000000  1.617501
638.500000  1.471876
639.000000  1.439435
639.500000  1.486248
640.000000  1.337254
640.500000  1.359119
641.000000  1.215638
641.500000  1.146408
642.000000  1.124829
642.500000  1.051965
643.000000  1.015421
643.500000  0.976345
644.000000  1.007867
644.500000  1.030998
645.000000  1.121317
645.500000  1.224253
646.000000  1.223641
646.500000  1.400257
647.000000  1.611458
647.500000  1.785951
648.000000  1.881109
648.500000  2.031409
649.000000  2.127261
649.500000  2.180771
650.000000  2.324763
650.500000  2.404139
651.000000  2.559176
651.500000  2.589351
652.000000  2.642493
652.500000  2.626712
653.000000  2.685019
653.500000  2.879030
654.000000  2.844445
654.500000  2.922760
655.000000  3.087801
655.500000  3.100540
656.000000  3.036843
656.500000  3.195861
657.000000  3.059668
657.500000  3.121283
658.000000  3.049460
658.500000  2.978699
659.000000  2.953343
659.500000  2.897057
660.000000  2.772521
660.500000  2.700535
661.000000  2.615646
661.500000  2.605295
662.000000  2.537270
662.500000  2.414817
663.000000  2.370923
663.500000  2.301571
664.000000  2.192367
664.500000  2.121300
665.000000  2.065483
665.500000  1.991885
666.000000  1.909997
666.500000  1.788932
667.000000  1.757532
667.500000  1.738974
668.000000  1.536205
668.500000  1.407668
669.000000  1.389723
669.500000  1.317043
670.000000  1.275068
670.500000  1.141549
671.000000  1.010092
671.500000  1.033244
672.000000  1.067644
672.500000  1.031855
673.000000  1.051516
673.500000  1.131586
674.000000  1.173071
674.500000  1.302282
675.000000  1.459994
675.500000  1.568381
676.000000  1.697612
676.500000  1.856079
677.000000  2.062482
677.500000  2.201962
678.000000  2.258146
678.500000  2.267946
679.000000  2.371433
679.500000  2.493540
680.000000  2.581184
680.500000  2.614442
681.000000  2.635511
681.500000  2.804778
682.000000  2.854959
682.500000  2.831543
683.000000  2.843159
683.500000  2.864330
684.000000  2.941951
684.500000  3.053727
685.000000  3.037190
685.500000  3.023022
686.000000  3.074592
686.500000  2.836259
687.000000  2.911511
687.500000  2.797162
688.000000  2.829746
688.500000  2.610277
689.000000  2.575938
689.500000  2.629141
690.000000  2.423534
690.500000  2.393993
691.000000  2.341443
691.500000  2.286545
692.000000  2.182710
692.500000  2.128629
693.000000  2.066545
693.500000  1.989945
694.000000  1.904138
694.500000  1.792974
695.000000  1.771640
695.500000  1.730502
696.000000  1.571749
696.500000  1.522711
697.000000  1.368899
697.500000  1.175602
698.000000  1.160229
698.500000  1.038715
699.000000  0.953010
699.500000  0.951070
700.000000  0.906748
700.500000  0.988227
701.000000  0.976325
701.500000  0.987533
702.000000  1.080445
702.500000  1.198141
703.000000  1.320125
703.500000  1.428410
704.000000  1.562236
704.500000  1.684036
705.000000  1.778234
705.500000  1.944132
706.000000  1.994416
706.500000  2.126996
707.000000  2.139756
707.500000  2.263740
708.000000  2.325641
708.500000  2.270661
709.000000  2.427495
709.500000  2.453239
710.000000  2.549377
710.500000  2.517324
711.000000  2.515160
711.500000  2.615340
712.000000  2.590637
712.500000  2.667135
713.000000  2.665297
713.500000  2.742550
714.000000  2.665991
714.500000  2.594822
715.000000  2.580143
715.500000  2.544702
716.000000  2.510138
716.500000  2.419288
717.000000  2.339442
717.500000  2.264639
718.000000  2.124770
718.500000  2.119748
719.000000  2.180015
719.500000  1.939151
720.000000  1.967569
720.500000  1.890561
721.000000  1.817922
721.500000  1.712577
722.000000  1.664212
722.500000  1.725112
723.000000  1.587122
723.500000  1.519587
724.000000  1.436577
724.500000  1.366898
725.000000  1.327638
725.500000  1.133954
726.000000  1.052618
726.500000  0.937759
727.000000  0.838580
727.500000  0.793073
728.000000  0.775352
728.500000  0.816041
729.000000  0.855668
729.500000  0.814020
730.000000  0.923550
730.500000  0.970506
731.000000  1.051679
731.500000  1.109027
732.000000  1.257429
732.500000  1.350239
733.000000  1.471202
733.500000  1.612826
734.000000  1.605578
734.500000  1.695448
735.000000  1.820780
735.500000  1.825476
736.000000  1.926166
736.500000  1.969652
737.000000  1.925717
737.500000  2.045537
738.000000  2.069423
738.500000  2.050906
739.000000  2.193429
739.500000  2.201105
740.000000  2.188080
740.500000  2.126261
741.000000  2.153291
741.500000  2.082714
742.000000  2.153965
742.500000  2.102742
743.000000  2.093289
743.500000  1.879904
744.000000  1.850996
744.500000  1.879435
745.000000  1.774294
745.500000  1.778132
746.000000  1.735953
746.500000  1.677931
747.000000  1.535573
747.500000  1.574873
748.000000  1.518730
748.500000  1.414875
749.000000  1.351954
749.500000  1.340317
750.000000  1.291768
750.500000  1.263574
751.000000  1.183320
751.500000  1.160229
752.000000  1.044676
752.500000  1.015849
753.000000  0.923815
753.500000  0.823615
754.000000  0.705265
754.500000  0.638403
755.000000  0.647060
755.500000  0.616987
756.000000  0.667047
756.500000  0.710961
757.000000  0.752262
757.500000  0.839253
758.000000  0.918711
758.500000  0.952601
759.000000  1.061091
759.500000  1.100779
760.000000  1.243587
760.500000  1.235523
761.000000  1.331619
761.500000  1.318594
762.000000  1.333457
762.500000  1.407505
763.000000  1.468405
763.500000  1.435964
764.000000  1.509828
764.500000  1.589899
765.000000  1.589593
765.500000  1.567401
766.000000  1.605986
766.500000  1.692610
767.000000  1.646634
767.500000  1.672052
768.000000  1.602699
768.500000  1.717701
769.000000  1.627892
769.500000  1.663150
770.000000  1.668438
770.500000  1.555029
771.000000  1.475224
771.500000  1.519791
772.000000  1.402054
772.500000  1.371941
773.000000  1.357241
773.500000  1.308121
774.000000  1.260205
774.500000  1.275946
775.000000  1.234441
775.500000  1.210268
776.000000  1.160005
776.500000  1.105352
777.000000  1.020157
777.500000  1.060029
778.000000  0.979081
778.500000  0.865651
779.000000  0.898806
779.500000  0.783478
780.000000  0.737379
780.500000  0.659575
781.000000  0.591488
781.500000  0.558639
782.000000  0.585629
782.500000  0.553903
783.000000  0.504742
783.500000  0.473853
784.000000  0.481978
784.500000  0.544022
785.000000  0.553617
785.500000  0.573788
786.000000  0.632707
786.500000  0.695098
787.000000  0.765471
787.500000  0.833762
788.000000  0.854443
788.500000  0.878023
789.000000  0.921386
789.500000  1.023689
790.000000  0.970057
790.500000  1.003580
791.000000  0.991636
791.500000  1.115744
792.000000  1.062459
792.500000  1.142713
793.000000  1.095940
793.500000  1.189853
794.000000  1.143039
794.500000  1.170825
795.000000  1.327904
795.500000  1.166130
796.000000  1.226213
796.500000  1.197488
797.000000  1.160781
797.500000  1.157718
798.000000  1.072033
798.500000  1.078607
799.000000  1.045309
799.500000  1.074871
800.000000  0.979816
800.500000  1.009480
801.000000  0.875430
801.500000  0.934513
802.000000  0.903624
802.500000  0.871959
803.000000  0.865753
803.500000  0.784213
804.000000  0.786479
804.500000  0.712921
805.000000  0.739114
805.500000  0.688871
806.000000  0.654409
806.500000  0.629584
807.000000  0.587487
807.500000  0.564743
808.000000  0.534426
808.500000  0.501373
809.000000  0.417117
809.500000  0.367589
810.000000  0.337904
810.500000  0.310200
811.000000  0.357075
811.500000  0.348276
812.000000  0.391128
812.500000  0.392251
813.000000  0.457867
813.500000  0.445699
814.000000  0.506416
814.500000  0.531466
815.000000  0.507008
815.500000  0.594346
816.000000  0.655900
816.500000  0.637913
817.000000  0.663739
817.500000  0.684339
818.000000  0.667496
818.500000  0.664862
819.000000  0.732479
819.500000  0.746770
820.000000  0.753528
820.500000  0.795217
821.000000  0.786765
821.500000  0.825942
822.000000  0.791664
822.500000  0.822104
823.000000  0.795462
823.500000  0.805996
824.000000  0.880126
824.500000  0.847726
825.000000  0.777639
825.500000  0.763552
826.000000  0.719291
826.500000  0.739461
827.000000  0.716024
827.500000  0.690096
828.000000  0.678235
828.500000  0.670905
829.000000  0.649877
829.500000  0.605738
830.000000  0.609250
830.500000  0.566397
831.000000  0.589569
831.500000  0.580913
832.000000  0.527628
832.500000  0.535937
833.000000  0.504476
833.500000  0.501843
834.000000  0.495820
834.500000  0.456336
835.000000  0.420853
835.500000  0.374020
836.000000  0.344560
836.500000  0.321919
837.000000  0.288743
837.500000  0.273758
838.000000  0.261468
838.500000  0.229129
839.000000  0.256058
839.500000  0.259528
840.000000  0.249116
840.500000  0.278882
841.000000  0.282557
841.500000  0.287722
842.000000  0.302871
842.500000  0.339374
843.000000  0.356238
843.500000  0.374653
844.000000  0.381696
844.500000  0.437206
845.000000  0.416525
845.500000  0.481509
846.000000  0.443576
846.500000  0.476466
847.000000  0.488552
847.500000  0.502782
848.000000  0.474751
848.500000  0.495003
849.000000  0.489103
849.500000  0.520911
850.000000  0.547288
850.500000  0.504150
851.000000  0.582791
851.500000  0.507110
852.000000  0.521033
852.500000  0.592325
853.000000  0.533814
853.500000  0.488470
854.000000  0.533262
854.500000  0.444577
855.000000  0.449578
855.500000  0.447721
856.000000  0.440453
856.500000  0.411850
857.000000  0.394905
857.500000  0.378981
858.000000  0.392373
858.500000  0.406787
859.000000  0.367875
859.500000  0.331290
860.000000  0.329248
860.500000  0.332249
861.000000  0.328534
861.500000  0.305831
862.000000  0.277678
862.500000  0.307117
863.000000  0.260059
863.500000  0.266245
864.000000  0.257997
864.500000  0.206692
865.000000  0.194729
865.500000  0.181152
866.000000  0.170985
866.500000  0.175252
867.000000  0.186154
867.500000  0.192340
868.000000  0.170822
868.500000  0.152182
869.000000  0.198281
869.500000  0.220167
870.000000  0.233253
870.500000  0.219289
871.000000  0.262570
871.500000  0.266123
872.000000  0.263122
872.500000  0.262509
873.000000  0.309220
873.500000  0.270532
874.000000  0.280414
874.500000  0.297604
875.000000  0.281822
875.500000  0.310180
876.000000  0.334985
876.500000  0.352869
877.000000  0.308751
877.500000  0.358157
878.000000  0.316080
878.500000  0.323817
879.000000  0.319632
879.500000  0.321163
880.000000  0.315222
880.500000  0.303279
881.000000  0.336965
881.500000  0.299462
882.000000  0.312813
882.500000  0.290785
883.000000  0.258977
883.500000  0.310527
884.000000  0.281251
884.500000  0.240807
885.000000  0.261856
885.500000  0.278025
886.000000  0.259671
886.500000  0.219636
887.000000  0.237234
887.500000  0.228639
888.000000  0.233723
888.500000  0.213164
889.000000  0.216431
889.500000  0.206141
890.000000  0.205651
890.500000  0.208122
891.000000  0.159981
891.500000  0.182173
892.000000  0.158675
892.500000  0.119272
893.000000  0.134012
893.500000  0.139096
894.000000  0.144914
894.500000  0.113597
895.000000  0.133665
895.500000  0.120865
896.000000  0.116455
896.500000  0.142771
897.000000  0.138157
897.500000  0.139423
898.000000  0.155653
898.500000  0.144159
899.000000  0.159532
899.500000  0.178784
900.000000  0.167311
900.500000  0.165902
901.000000  0.149181
901.500000  0.194218
902.000000  0.186215
902.500000  0.189196
903.000000  0.196076
903.500000  0.216982
904.000000  0.180601
904.500000  0.184541
905.000000  0.214267
905.500000  0.204957
906.000000  0.204998
906.500000  0.229456
907.000000  0.213409
907.500000  0.200731
908.000000  0.191462
908.500000  0.203283
909.000000  0.219799
909.500000  0.202058
910.000000  0.228394
910.500000  0.190789
911.000000  0.198404
911.500000  0.180111
912.000000  0.194545
912.500000  0.171026
913.000000  0.189278
913.500000  0.145159
914.000000  0.165596
914.500000  0.145159
915.000000  0.145996
915.500000  0.163064
916.000000  0.143669
916.500000  0.144812
917.000000  0.143771
917.500000  0.131930
918.000000  0.132359
918.500000  0.147242
919.000000  0.121293
919.500000  0.109309
920.000000  0.102940
920.500000  0.099796
921.000000  0.111290
921.500000  0.109452
922.000000  0.091344
922.500000  0.090098
923.000000  0.104430
923.500000  0.092038
924.000000  0.094059
924.500000  0.087322
925.000000  0.097672
925.500000  0.105247
926.000000  0.106063
926.500000  0.106655
927.000000  0.104226
927.500000  0.112106
928.000000  0.119864
928.500000  0.129296
929.000000  0.096529
929.500000  0.127194
930.000000  0.130909
930.500000  0.123927
931.000000  0.132012
931.500000  0.139014
932.000000  0.127806
932.500000  0.140831
933.000000  0.130399
933.500000  0.139259
934.000000  0.129439
934.500000  0.147854
935.000000  0.148324
935.500000  0.158981
936.000000  0.152223
936.500000  0.139586
937.000000  0.129991
937.500000  0.114720
938.000000  0.130542
938.500000  0.126275
939.000000  0.117864
939.500000  0.124887
940.000000  0.115393
940.500000  0.119721
941.000000  0.125928
941.500000  0.128602
942.000000  0.126132
942.500000  0.138871
943.000000  0.102858
943.500000  0.094038
944.000000  0.100449
944.500000  0.116190
945.000000  0.100898
945.500000  0.087689
946.000000  0.105002
946.500000  0.085505
947.000000  0.095590
947.500000  0.081769
948.000000  0.078768
948.500000  0.081156
949.000000  0.072561
949.500000  0.087628
950.000000  0.069213
950.500000  0.066886
951.000000  0.079482
951.500000  0.072030
952.000000  0.059250
952.500000  0.077685
953.000000  0.095937
953.500000  0.083871
954.000000  0.082544
954.500000  0.091425
955.000000  0.098326
955.500000  0.086423
956.000000  0.090078
956.500000  0.103491
957.000000  0.093426
957.500000  0.092446
958.000000  0.094957
958.500000  0.112658
959.000000  0.084647
959.500000  0.084749
960.000000  0.086791
960.500000  0.092609
961.000000  0.103430
961.500000  0.100490
962.000000  0.113331
962.500000  0.102981
963.000000  0.103532
963.500000  0.110575
964.000000  0.099959
964.500000  0.089751
965.000000  0.104920
965.500000  0.101184
966.000000  0.101756
966.500000  0.098612
967.000000  0.105247
967.500000  0.096100
968.000000  0.094467
968.500000  0.093569
969.000000  0.077849
969.500000  0.082442
970.000000  0.088894
970.500000  0.093589
971.000000  0.077236
971.500000  0.079523
972.000000  0.078604
972.500000  0.082646
973.000000  0.094733
973.500000  0.091344
974.000000  0.060393
974.500000  0.077134
975.000000  0.082728
975.500000  0.072704
976.000000  0.069478
976.500000  0.063823
977.000000  0.067314
977.500000  0.074113
978.000000  0.075317
978.500000  0.067723
979.000000  0.062598
979.500000  0.068417
980.000000  0.070152
980.500000  0.082157
981.000000  0.073909
981.500000  0.068376
982.000000  0.056780
982.500000  0.077583
983.000000  0.086117
983.500000  0.075215
984.000000  0.067804
984.500000  0.068233
985.000000  0.075889
985.500000  0.071275
986.000000  0.078992
986.500000  0.095223
987.000000  0.068723
987.500000  0.086383
988.000000  0.056371
988.500000  0.066743
989.000000  0.070336
989.500000  0.080197
990.000000  0.069621
990.500000  0.081442
991.000000  0.084096
991.500000  0.080380
992.000000  0.098673
992.500000  0.069315
993.000000  0.072337
993.500000  0.076685
994.000000  0.073582
994.500000  0.047164
995.000000  0.063537
995.500000  0.069397
996.000000  0.065559
996.500000  0.079645
997.000000  0.073970
997.500000  0.061557
998.000000  0.068376
998.500000  0.084035
999.000000  0.068907
999.500000  0.058842
1000.000000 0.075991
1000.500000 0.068519
1001.000000 0.072479
1001.500000 0.074562
1002.000000 0.069029
1002.500000 0.056943
1003.000000 0.066416
1003.500000 0.046388
1004.000000 0.064946
1004.500000 0.069989
1005.000000 0.063497
1005.500000 0.066600
1006.000000 0.070254
1006.500000 0.073112
1007.000000 0.061210
1007.500000 0.064354
1008.000000 0.063394
1008.500000 0.082646
1009.000000 0.073357
1009.500000 0.059638
1010.000000 0.091854
1010.500000 0.063109
1011.000000 0.070152
1011.500000 0.052982
1012.000000 0.065007
1012.500000 0.070662
1013.000000 0.072418
1013.500000 0.090037
1014.000000 0.074582
1014.500000 0.077257
1015.000000 0.078033
1015.500000 0.074337
1016.000000 0.084729
1016.500000 0.073112
1017.000000 0.071806
1017.500000 0.075358
1018.000000 0.070356
1018.500000 0.069152
1019.000000 0.076685
1019.500000 0.069070
1020.000000 0.072745
1020.500000 0.065171
1021.000000 0.067110
1021.500000 0.079094
1022.000000 0.075848
1022.500000 0.077400
1023.000000 0.063680
1023.500000 0.083667
1024.000000 0.069825
1024.500000 0.062088
1025.000000 0.055636
1025.500000 0.070907
1026.000000 0.068355
1026.500000 0.061618
1027.000000 0.055228
1027.500000 0.055473
1028.000000 0.069295
1028.500000 0.066702
1029.000000 0.064579
1029.500000 0.055902
1030.000000 0.056453
1030.500000 0.071397
1031.000000 0.069070
1031.500000 0.063987
1032.000000 0.062823
1032.500000 0.069152
1033.000000 0.060373
1033.500000 0.067580
1034.000000 0.062272
1034.500000 0.057066
1035.000000 0.061108
1035.500000 0.076583
1036.000000 0.058025
1036.500000 0.069213
1037.000000 0.082259
1037.500000 0.065783
1038.000000 0.063864
1038.500000 0.060761
1039.000000 0.070601
1039.500000 0.049573
1040.000000 0.059475
1040.500000 0.064436
1041.000000 0.058760
1041.500000 0.077583
1042.000000 0.081115
1042.500000 0.054044