3649.000000 0.091139
3649.500000 0.081952
3650.000000 0.056269
3650.500000 0.080625
3651.000000 0.082442
3651.500000 0.084178
3652.000000 0.073541
3652.500000 0.070499
3653.000000 0.078686
3653.500000 0.063884
3654.000000 0.091078
3654.500000 0.074174
3655.000000 0.082136
3655.500000 0.077298
3656.000000 0.084198
3656.500000 0.068703
3657.000000 0.063823
3657.500000 0.075236
3658.000000 0.080421
3658.500000 0.076318
3659.000000 0.080340
3659.500000 0.073174
3660.000000 0.079686
3660.500000 0.087485
3661.000000 0.074358
3661.500000 0.075113
3662.000000 0.084851
3662.500000 0.063742
3663.000000 0.066641
3663.500000 0.089077
3664.000000 0.054677
3664.500000 0.079441
3665.000000 0.067825
3665.500000 0.071173
3666.000000 0.073500
3666.500000 0.070622
3667.000000 0.085607
3667.500000 0.099347
3668.000000 0.073153
3668.500000 0.076318
3669.000000 0.069887
3669.500000 0.072724
3670.000000 0.055943
3670.500000 0.067437
3671.000000 0.066314
3671.500000 0.076175
3672.000000 0.080156
3672.500000 0.081177
3673.000000 0.073725
3673.500000 0.073827
3674.000000 0.075950
3674.500000 0.072908
3675.000000 0.079237
3675.500000 0.050145
3676.000000 0.069519
3676.500000 0.076195
3677.000000 0.072479
3677.500000 0.078339
3678.000000 0.069519
3678.500000 0.072990
3679.000000 0.086546
3679.500000 0.073153
3680.000000 0.072827
3680.500000 0.081115
3681.000000 0.086342
3681.500000 0.070397
3682.000000 0.063007
3682.500000 0.052574
3683.000000 0.078278
3683.500000 0.060271
3684.000000 0.065395
3684.500000 0.070315
3685.000000 0.080666
3685.500000 0.085872
3686.000000 0.087465
3686.500000 0.084606
3687.000000 0.062802
3687.500000 0.071806
3688.000000 0.061108
3688.500000 0.081646
3689.000000 0.066967
3689.500000 0.094957
3690.000000 0.063252
3690.500000 0.073398
3691.000000 0.068600
3691.500000 0.070846
3692.000000 0.076501
3692.500000 0.077747
3693.000000 0.060250
3693.500000 0.076093
3694.000000 0.058617
3694.500000 0.070520
3695.000000 0.061251
3695.500000 0.081422
3696.000000 0.072153
3696.500000 0.075685
3697.000000 0.071765
3697.500000 0.059434
3698.000000 0.074603
3698.500000 0.069478
3699.000000 0.066130
3699.500000 0.086566
3700.000000 0.075440
3700.500000 0.086035
3701.000000 0.067273
3701.500000 0.070969
3702.000000 0.080197
3702.500000 0.082749
3703.000000 0.069458
3703.500000 0.075093
3704.000000 0.064232
3704.500000 0.073255
3705.000000 0.047715
3705.500000 0.068764
3706.000000 0.064905
3706.500000 0.078931
3707.000000 0.081034
3707.500000 0.064885
3708.000000 0.076951
3708.500000 0.087444
3709.000000 0.086158
3709.500000 0.079850
3710.000000 0.058883
3710.500000 0.071602
3711.000000 0.069825
3711.500000 0.072867
3712.000000 0.055698
3712.500000 0.080687
3713.000000 0.066763
3713.500000 0.055820
3714.000000 0.082871
3714.500000 0.076603
3715.000000 0.079421
3715.500000 0.078727
3716.000000 0.081013
3716.500000 0.069213
3717.000000 0.060271
3717.500000 0.084708
3718.000000 0.063007
3718.500000 0.066763
3719.000000 0.074562
3719.500000 0.081585
3720.000000 0.063415
3720.500000 0.081544
3721.000000 0.072827
3721.500000 0.088322
3722.000000 0.061475
3722.500000 0.069866
3723.000000 0.071663
3723.500000 0.063639
3724.000000 0.084953
3724.500000 0.081483
3725.000000 0.060332
3725.500000 0.085219
3726.000000 0.087322
3726.500000 0.058454
3727.000000 0.055371
3727.500000 0.069213
3728.000000 0.065436
3728.500000 0.075338
3729.000000 0.068784
3729.500000 0.067090
3730.000000 0.070397
3730.500000 0.087424
3731.000000 0.083198
3731.500000 0.050410
3732.000000 0.074399
3732.500000 0.071459
3733.000000 0.066069
3733.500000 0.067539
3734.000000 0.064538
3734.500000 0.063456
3735.000000 0.080850
3735.500000 0.078175
3736.000000 0.073092
3736.500000 0.061087
3737.000000 0.077869
3737.500000 0.073990
3738.000000 0.077930
3738.500000 0.090874
3739.000000 0.064660
3739.500000 0.068641
3740.000000 0.068600
3740.500000 0.068294
3741.000000 0.071663
3741.500000 0.073602
3742.000000 0.078482
3742.500000 0.089567
3743.000000 0.064395
3743.500000 0.069887
3744.000000 0.056412
3744.500000 0.077685
3745.000000 0.062619
3745.500000 0.069499
3746.000000 0.069009
3746.500000 0.077155
3747.000000 0.076236
3747.500000 0.083484
3748.000000 0.074684
3748.500000 0.080176
3749.000000 0.081422
3749.500000 0.081279
3750.000000 0.075787
3750.500000 0.074031
3751.000000 0.069948
3751.500000 0.078829
3752.000000 0.064089
3752.500000 0.070683
3753.000000 0.075868
3753.500000 0.081769
3754.000000 0.084035
3754.500000 0.078645
3755.000000 0.074276
3755.500000 0.055024
3756.000000 0.069703
3756.500000 0.072377
3757.000000 0.081973
3757.500000 0.071642
3758.000000 0.068458
3758.500000 0.080237
3759.000000 0.074889
3759.500000 0.094549
3760.000000 0.060659
3760.500000 0.071173
3761.000000 0.103226
3761.500000 0.071847
3762.000000 0.075236
3762.500000 0.049083
3763.000000 0.092569
3763.500000 0.077093
3764.000000 0.082891
3764.500000 0.068172
3765.000000 0.080033
3765.500000 0.093120
3766.000000 0.070907
3766.500000 0.074705
3767.000000 0.074970
3767.500000 0.066253
3768.000000 0.056841
3768.500000 0.071438
3769.000000 0.079074
3769.500000 0.076971
3770.000000 0.074480
3770.500000 0.077828
3771.000000 0.069805
3771.500000 0.074929
3772.000000 0.072847
3772.500000 0.075215
3773.000000 0.077604
3773.500000 0.080932
3774.000000 0.075011
3774.500000 0.065579
3775.000000 0.089649
3775.500000 0.076522
3776.000000 0.076542
3776.500000 0.088179
3777.000000 0.086015
3777.500000 0.061047
3778.000000 0.067335
3778.500000 0.076011
3779.000000 0.085076
3779.500000 0.078278
3780.000000 0.086199
3780.500000 0.073704
3781.000000 0.062966
3781.500000 0.059475
3782.000000 0.071663
3782.500000 0.087505
3783.000000 0.075644
3783.500000 0.073398
3784.000000 0.073847
3784.500000 0.090792
3785.000000 0.077808
3785.500000 0.084606
3786.000000 0.066518
3786.500000 0.081360
3787.000000 0.074766
3787.500000 0.075256
3788.000000 0.067314
3788.500000 0.075236
3789.000000 0.077971
3789.500000 0.077298
3790.000000 0.065906
3790.500000 0.077257
3791.000000 0.087138
3791.500000 0.076093
3792.000000 0.080299
3792.500000 0.066783
3793.000000 0.084606
3793.500000 0.082483
3794.000000 0.095263
3794.500000 0.066110
3795.000000 0.071316
3795.500000 0.082932
3796.000000 0.080197
3796.500000 0.085688
3797.000000 0.079666
3797.500000 0.080442
3798.000000 0.088404
3798.500000 0.087301
3799.000000 0.061149
3799.500000 0.080319
3800.000000 0.081381
3800.500000 0.078380
3801.000000 0.086240
3801.500000 0.078890
3802.000000 0.061332
3802.500000 0.080544
3803.000000 0.072234
3803.500000 0.068580
3804.000000 0.076358
3804.500000 0.063537
3805.000000 0.083341
3805.500000 0.081258
3806.000000 0.061925
3806.500000 0.067233
3807.000000 0.065171
3807.500000 0.075603
3808.000000 0.086770
3808.500000 0.068539
3809.000000 0.073990
3809.500000 0.085872
3810.000000 0.086219
3810.500000 0.072459
3811.000000 0.061475
3811.500000 0.077134
3812.000000 0.059454
3812.500000 0.067743
3813.000000 0.090772
3813.500000 0.060924
3814.000000 0.072275
3814.500000 0.056167
3815.000000 0.088955
3815.500000 0.078686
3816.000000 0.069927
3816.500000 0.089220
3817.000000 0.096999
3817.500000 0.073541
3818.000000 0.089649
3818.500000 0.065150
3819.000000 0.072030
3819.500000 0.086975
3820.000000 0.077767
3820.500000 0.079380
3821.000000 0.076665
3821.500000 0.093814
3822.000000 0.076440
3822.500000 0.081136
3823.000000 0.067784
3823.500000 0.081564
3824.000000 0.083871
3824.500000 0.090915
3825.000000 0.077706
3825.500000 0.069478
3826.000000 0.091323
3826.500000 0.073378
3827.000000 0.082095
3827.500000 0.087873
3828.000000 0.080768
3828.500000 0.073684
3829.000000 0.064538
3829.500000 0.089894
3830.000000 0.089669
3830.500000 0.087363
3831.000000 0.071642
3831.500000 0.086056
3832.000000 0.075113
3832.500000 0.073153
3833.000000 0.075542
3833.500000 0.092814
3834.000000 0.079441
3834.500000 0.088996
3835.000000 0.093630
3835.500000 0.078216
3836.000000 0.080217
3836.500000 0.073541
3837.000000 0.066681
3837.500000 0.088690
3838.000000 0.076195
3838.500000 0.081442
3839.000000 0.076461
3839.500000 0.062721
3840.000000 0.083892
3840.500000 0.087097
3841.000000 0.088669
3841.500000 0.077175
3842.000000 0.076848
3842.500000 0.092303
3843.000000 0.078073
3843.500000 0.091691
3844.000000 0.078665
3844.500000 0.075052
3845.000000 0.079768
3845.500000 0.090017
3846.000000 0.079931
3846.500000 0.084749
3847.000000 0.090935
3847.500000 0.063129
3848.000000 0.071377
3848.500000 0.093426
3849.000000 0.082871
3849.500000 0.078053
3850.000000 0.091650
3850.500000 0.071847
3851.000000 0.067559
3851.500000 0.086689
3852.000000 0.088832
3852.500000 0.085403
3853.000000 0.089710
3853.500000 0.087750
3854.000000 0.086178
3854.500000 0.078849
3855.000000 0.075317
3855.500000 0.071561
3856.000000 0.091731
3856.500000 0.092344
3857.000000 0.078788
3857.500000 0.082157
3858.000000 0.087832
3858.500000 0.074909
3859.000000 0.088975
3859.500000 0.079890
3860.000000 0.086035
3860.500000 0.105226
3861.000000 0.088649
3861.500000 0.093671
3862.000000 0.083279
3862.500000 0.099326
3863.000000 0.098714
3863.500000 0.071275
3864.000000 0.088036
3864.500000 0.100776
3865.000000 0.097101
3865.500000 0.073112
3866.000000 0.097366
3866.500000 0.104798
3867.000000 0.097856
3867.500000 0.085648
3868.000000 0.093344
3868.500000 0.081503
3869.000000 0.086219
3869.500000 0.086525
3870.000000 0.092773
3870.500000 0.071255
3871.000000 0.072847
3871.500000 0.077379
3872.000000 0.091466
3872.500000 0.084790
3873.000000 0.073378
3873.500000 0.078033
3874.000000 0.067641
3874.500000 0.083586
3875.000000 0.099183
3875.500000 0.077726
3876.000000 0.082667
3876.500000 0.095080
3877.000000 0.101715
3877.500000 0.095161
3878.000000 0.071704
3878.500000 0.077604
3879.000000 0.071581
3879.500000 0.081871
3880.000000 0.094549
3880.500000 0.098081
3881.000000 0.066722
3881.500000 0.094222
3882.000000 0.089282
3882.500000 0.080829
3883.000000 0.084525
3883.500000 0.084443
3884.000000 0.076706
3884.500000 0.086607
3885.000000 0.071255
3885.500000 0.083831
3886.000000 0.090507
3886.500000 0.091895
3887.000000 0.104124
3887.500000 0.097468
3888.000000 0.098857
3888.500000 0.094671
3889.000000 0.124621
3889.500000 0.076665
3890.000000 0.094937
3890.500000 0.087955
3891.000000 0.100531
3891.500000 0.092160
3892.000000 0.108350
3892.500000 0.102205
3893.000000 0.097346
3893.500000 0.114087
3894.000000 0.097938
3894.500000 0.102919
3895.000000 0.109044
3895.500000 0.111514
3896.000000 0.103185
3896.500000 0.114454
3897.000000 0.115332
3897.500000 0.130276
3898.000000 0.106186
3898.500000 0.110126
3899.000000 0.103205
3899.500000 0.113352
3900.000000 0.115067
3900.500000 0.113883
3901.000000 0.104736
3901.500000 0.105165
3902.000000 0.105818
3902.500000 0.108003
3903.000000 0.115802
3903.500000 0.092099
3904.000000 0.116720
3904.500000 0.100490
3905.000000 0.091017
3905.500000 0.100694
3906.000000 0.118231
3906.500000 0.093324
3907.000000 0.091282
3907.500000 0.113495
3908.000000 0.090445
3908.500000 0.099918
3909.000000 0.124887
3909.500000 0.110494
3910.000000 0.118333
3910.500000 0.108799
3911.000000 0.120906
3911.500000 0.094651
3912.000000 0.108779
3912.500000 0.097285
3913.000000 0.103716
3913.500000 0.108534
3914.000000 0.090486
3914.500000 0.102981
3915.000000 0.096427
3915.500000 0.098203
3916.000000 0.088036
3916.500000 0.101061
3917.000000 0.107901
3917.500000 0.113290
3918.000000 0.117782
3918.500000 0.093753
3919.000000 0.097979
3919.500000 0.107268
3920.000000 0.110146
3920.500000 0.144874
3921.000000 0.126704
3921.500000 0.138034
3922.000000 0.132257
3922.500000 0.126295
3923.000000 0.111167
3923.500000 0.128602
3924.000000 0.131542
3924.500000 0.134952
3925.000000 0.145854
3925.500000 0.130889
3926.000000 0.144241
3926.500000 0.132338
3927.000000 0.154040
3927.500000 0.136360
3928.000000 0.125907
3928.500000 0.148426
3929.000000 0.127234
3929.500000 0.135809
3930.000000 0.148324
3930.500000 0.143200
3931.000000 0.136115
3931.500000 0.147405
3932.000000 0.126091
3932.500000 0.137504
3933.000000 0.149488
3933.500000 0.129725
3934.000000 0.126806
3934.500000 0.127234
3935.000000 0.133339
3935.500000 0.120314
3936.000000 0.142955
3936.500000 0.121498
3937.000000 0.123070
3937.500000 0.126928
3938.000000 0.130746
3938.500000 0.108105
3939.000000 0.108166
3939.500000 0.117639
3940.000000 0.118149
3940.500000 0.115740
3941.000000 0.110534
3941.500000 0.108840
3942.000000 0.128990
3942.500000 0.101306
3943.000000 0.116639
3943.500000 0.123825
3944.000000 0.114413
3944.500000 0.119272
3945.000000 0.108717
3945.500000 0.123355
3946.000000 0.124744
3946.500000 0.153489
3947.000000 0.125356
3947.500000 0.145139
3948.000000 0.133951
3948.500000 0.130031
3949.000000 0.169495
3949.500000 0.166126
3950.000000 0.152121
3950.500000 0.137789
3951.000000 0.169965
3951.500000 0.177375
3952.000000 0.163901
3952.500000 0.160655
3953.000000 0.188788
3953.500000 0.171006
3954.000000 0.168474
3954.500000 0.177171
3955.000000 0.175109
3955.500000 0.182316
3956.000000 0.193034
3956.500000 0.179846
3957.000000 0.166228
3957.500000 0.181724
3958.000000 0.203855
3958.500000 0.185011
3959.000000 0.190503
3959.500000 0.202221
3960.000000 0.186950
3960.500000 0.183643
3961.000000 0.176498
3961.500000 0.151692
3962.000000 0.154285
3962.500000 0.183419
3963.000000 0.161717
3963.500000 0.157164
3964.000000 0.158348
3964.500000 0.128439
3965.000000 0.148018
3965.500000 0.141260
3966.000000 0.130358
3966.500000 0.141852
3967.000000 0.163329
3967.500000 0.147854
3968.000000 0.129766
3968.500000 0.151856
3969.000000 0.159675
3969.500000 0.147058
3970.000000 0.138422
3970.500000 0.119293
3971.000000 0.122947
3971.500000 0.131848
3972.000000 0.153367
3972.500000 0.145486
3973.000000 0.146241
3973.500000 0.164718
3974.000000 0.162533
3974.500000 0.166249
3975.000000 0.177375
3975.500000 0.152877
3976.000000 0.187951
3976.500000 0.174129
3977.000000 0.204835
3977.500000 0.232335
3978.000000 0.189870
3978.500000 0.211756
3979.000000 0.240480
3979.500000 0.233866
3980.000000 0.244319
3980.500000 0.233437
3981.000000 0.238133
3981.500000 0.238847
3982.000000 0.259467
3982.500000 0.254588
3983.000000 0.278127
3983.500000 0.291540
3984.000000 0.264816
3984.500000 0.291499
3985.000000 0.272084
3985.500000 0.288233
3986.000000 0.250403
3986.500000 0.283313
3987.000000 0.248402
3987.500000 0.242440
3988.000000 0.245054
3988.500000 0.257181
3989.000000 0.236908
3989.500000 0.239562
3990.000000 0.232212
3990.500000 0.206937
3991.000000 0.232212
3991.500000 0.214879
3992.000000 0.228803
3992.500000 0.188441
3993.000000 0.196097
3993.500000 0.208285
3994.000000 0.185378
3994.500000 0.191891
3995.000000 0.167372
3995.500000 0.203467
3996.000000 0.175171
3996.500000 0.187032
3997.000000 0.186563
3997.500000 0.182500
3998.000000 0.182990
3998.500000 0.153693
3999.000000 0.162533
3999.500000 0.183970
4000.000000 0.182949
4000.500000 0.186665
4001.000000 0.178213
4001.500000 0.235479
4002.000000 0.210612
4002.500000 0.226292
4003.000000 0.250423
4003.500000 0.262591
4004.000000 0.283496
4004.500000 0.298237
4005.000000 0.290622
4005.500000 0.277065
4006.000000 0.285824
4006.500000 0.325165
4007.000000 0.349684
4007.500000 0.333352
4008.000000 0.345907
4008.500000 0.341559
4009.000000 0.355217
4009.500000 0.382513
4010.000000 0.366466
4010.500000 0.386596
4011.000000 0.375857
4011.500000 0.355931
4012.000000 0.369814
4012.500000 0.393149
4013.000000 0.356789
4013.500000 0.372693
4014.000000 0.387760
4014.500000 0.338496
4015.000000 0.342069
4015.500000 0.338068
4016.000000 0.350113
4016.500000 0.351787
4017.000000 0.333086
4017.500000 0.302279
4018.000000 0.302606
4018.500000 0.310956
4019.000000 0.293663
4019.500000 0.254935
4020.000000 0.267899
4020.500000 0.268470
4021.000000 0.274595
4021.500000 0.263122
4022.000000 0.273493
4022.500000 0.269736
4023.000000 0.254649
4023.500000 0.262958
4024.000000 0.249504
4024.500000 0.228047
4025.000000 0.269736
4025.500000 0.218105
4026.000000 0.235356
4026.500000 0.208081
4027.000000 0.236418
4027.500000 0.249137
4028.000000 0.227619
4028.500000 0.279944
4029.000000 0.291908
4029.500000 0.335557
4030.000000 0.319571
4030.500000 0.377000
4031.000000 0.381369
4031.500000 0.415729
4032.000000 0.442147
4032.500000 0.393537
4033.000000 0.412667
4033.500000 0.442800
4034.000000 0.446291
4034.500000 0.453702
4035.000000 0.482407
4035.500000 0.448639
4036.000000 0.501741
4036.500000 0.495126
4037.000000 0.474608
4037.500000 0.505211
4038.000000 0.559150
4038.500000 0.573604
4039.000000 0.545532
4039.500000 0.527117
4040.000000 0.521054
4040.500000 0.531160
4041.000000 0.530425
4041.500000 0.524157
4042.000000 0.489389
4042.500000 0.507988
4043.000000 0.534447
4043.500000 0.484203
4044.000000 0.453478
4044.500000 0.433266
4045.000000 0.469382
4045.500000 0.399499
4046.000000 0.406154
4046.500000 0.387392
4047.000000 0.404010
4047.500000 0.385473
4048.000000 0.350215
4048.500000 0.357932
4049.000000 0.373489
4049.500000 0.331208
4050.000000 0.336659
4050.500000 0.324695
4051.000000 0.293582
4051.500000 0.324165
4052.000000 0.307179
4052.500000 0.317734
4053.000000 0.281414
4053.500000 0.290499
4054.000000 0.277596
4054.500000 0.289989
4055.000000 0.318836
4055.500000 0.333556
4056.000000 0.335557
4056.500000 0.372121
4057.000000 0.394538
4057.500000 0.418220
4058.000000 0.439064
4058.500000 0.458847
4059.000000 0.503945
4059.500000 0.540918
4060.000000 0.508049
4060.500000 0.552147
4061.000000 0.563682
4061.500000 0.579055
4062.000000 0.622949
4062.500000 0.642691
4063.000000 0.604452
4063.500000 0.635586
4064.000000 0.681174
4064.500000 0.691015
4065.000000 0.673396
4065.500000 0.687605
4066.000000 0.718535
4066.500000 0.728927
4067.000000 0.717269
4067.500000 0.674437
4068.000000 0.726191
4068.500000 0.671354
4069.000000 0.667945
4069.500000 0.699875
4070.000000 0.673294
4070.500000 0.682889
4071.000000 0.647876
4071.500000 0.627093
4072.000000 0.566928
4072.500000 0.587997
4073.000000 0.543225
4073.500000 0.546737
4074.000000 0.532834
4074.500000 0.524402
4075.000000 0.502516
4075.500000 0.489226
4076.000000 0.508539
4076.500000 0.490471
4077.000000 0.458480
4077.500000 0.473383
4078.000000 0.430306
4078.500000 0.403949
4079.000000 0.392802
4079.500000 0.384554
4080.000000 0.369671
4080.500000 0.389679
4081.000000 0.379593
4081.500000 0.369671
4082.000000 0.376286
4082.500000 0.344764
4083.000000 0.391639
4083.500000 0.390230
4084.000000 0.421037
4084.500000 0.454846
4085.000000 0.451028
4085.500000 0.487327
4086.000000 0.496310
4086.500000 0.580770
4087.000000 0.591856
4087.500000 0.635668
4088.000000 0.631503
4088.500000 0.686237
4089.000000 0.673233
4089.500000 0.762327
4090.000000 0.725579
4090.500000 0.772371
4091.000000 0.797034
4091.500000 0.812284
4092.000000 0.792032
4092.500000 0.801831
4093.000000 0.827718
4093.500000 0.799218
4094.000000 0.847154
4094.500000 0.880881
4095.000000 0.873205
4095.500000 0.862425
4096.000000 0.857934
4096.500000 0.887414
4097.000000 0.891313
4097.500000 0.855770
4098.000000 0.844970
4098.500000 0.829005
4099.000000 0.813897
4099.500000 0.789990
4100.000000 0.728008
4100.500000 0.746301
4101.000000 0.717412
4101.500000 0.678051
4102.000000 0.663923
4102.500000 0.683032
4103.000000 0.667925
4103.500000 0.629482
4104.000000 0.610107
4104.500000 0.621744
4105.000000 0.576340
4105.500000 0.562865
4106.000000 0.570705
4106.500000 0.532527
4107.000000 0.545798
4107.500000 0.483856
4108.000000 0.484285
4108.500000 0.461583
4109.000000 0.445454
4109.500000 0.463767
4110.000000 0.439105
4110.500000 0.427244
4111.000000 0.410380
4111.500000 0.427917
4112.000000 0.464339
4112.500000 0.488409
4113.000000 0.487164
4113.500000 0.501251
4114.000000 0.513337
4114.500000 0.634647
4115.000000 0.676091
4115.500000 0.702284
4116.000000 0.731887
4116.500000 0.794175
4117.000000 0.871571
4117.500000 0.858281
4118.000000 0.864712
4118.500000 0.868468
4119.000000 0.900194
4119.500000 0.959461
4120.000000 0.939474
4120.500000 1.014584
4121.000000 0.995638
4121.500000 0.957420
4122.000000 1.007806
4122.500000 0.968669
4123.000000 1.048596
4123.500000 1.077729
4124.000000 1.048065
4124.500000 1.011583
4125.000000 0.985022
4125.500000 1.059192
4126.000000 1.030977
4126.500000 0.966035
4127.000000 1.004151
4127.500000 0.902808
4128.000000 0.877390
4128.500000 0.843132
4129.000000 0.858199
4129.500000 0.825289
4130.000000 0.802546
4130.500000 0.770901
4131.000000 0.811631
4131.500000 0.737910
4132.000000 0.728396
4132.500000 0.675683
4133.000000 0.668639
4133.500000 0.694853
4134.000000 0.611046
4134.500000 0.620417
4135.000000 0.616599
4135.500000 0.581464
4136.000000 0.567663
4136.500000 0.539020
4137.000000 0.524422
4137.500000 0.456213
4138.000000 0.533038
4138.500000 0.463931
4139.000000 0.485735
4139.500000 0.516807
4140.000000 0.485592
4140.500000 0.489614
4141.000000 0.559823
4141.500000 0.620336
4142.000000 0.664311
4142.500000 0.736848
4143.000000 0.724721
4143.500000 0.699651
4144.000000 0.780436
4144.500000 0.892702
4145.000000 0.835436
4145.500000 0.875471
4146.000000 0.917364
4146.500000 0.947191
4147.000000 0.994678
4147.500000 1.020851
4148.000000 1.044248
4148.500000 1.001191
4149.000000 1.070359
4149.500000 1.035775
4150.000000 1.098166
4150.500000 1.123685
4151.000000 1.117663
4151.500000 1.103657
4152.000000 1.118990
4152.500000 1.077525
4153.000000 1.109353
4153.500000 1.108312
4154.000000 1.127850
4154.500000 1.111313
4155.000000 1.114008
4155.500000 1.015992
4156.000000 0.964606
4156.500000 0.926755
4157.000000 0.919671
4157.500000 0.918752
4158.000000 0.868346
4158.500000 0.855545
4159.000000 0.819103
4159.500000 0.818797
4160.000000 0.803056
4160.500000 0.744259
4161.000000 0.711349
4161.500000 0.714105
4162.000000 0.637648
4162.500000 0.659472
4163.000000 0.681603
4163.500000 0.625235
4164.000000 0.611332
4164.500000 0.597470
4165.000000 0.568622
4165.500000 0.543511
4166.000000 0.531792
4166.500000 0.499781
4167.000000 0.512418
4167.500000 0.496820
4168.000000 0.510111
4168.500000 0.524341
4169.000000 0.581648
4169.500000 0.600614
4170.000000 0.650245
4170.500000 0.637464
4171.000000 0.726599
4171.500000 0.769084
4172.000000 0.768472
4172.500000 0.816429
4173.000000 0.893416
4173.500000 0.887557
4174.000000 0.932043
4174.500000 0.938862
4175.000000 0.990207
4175.500000 1.021995
4176.000000 0.995230
4176.500000 0.960992
4177.000000 1.029548
4177.500000 1.062948
4178.000000 1.048188
4178.500000 1.021872
4179.000000 1.063622
4179.500000 1.097043
4180.000000 1.105066
4180.500000 1.104086
4181.000000 1.107945
4181.500000 1.037755
4182.000000 1.033774
4182.500000 1.054006
4183.000000 1.010500
4183.500000 0.939780
4184.000000 0.986594
4184.500000 0.976018
4185.000000 0.953990
4185.500000 0.900807
4186.000000 0.883147
4186.500000 0.875532
4187.000000 0.870591
4187.500000 0.802811
4188.000000 0.759367
4188.500000 0.717759
4189.000000 0.726579
4189.500000 0.665168
4190.000000 0.625358
4190.500000 0.663249
4191.000000 0.629604
4191.500000 0.602451
4192.000000 0.623153
4192.500000 0.572154
4193.000000 0.548309
4193.500000 0.507477
4194.000000 0.485326
4194.500000 0.458133
4195.000000 0.465829
4195.500000 0.452886
4196.000000 0.457459
4196.500000 0.482284
4197.000000 0.460154
4197.500000 0.521789
4198.000000 0.492411
4198.500000 0.578442
4199.000000 0.560150
4199.500000 0.579953
4200.000000 0.635525
4200.500000 0.665740
4201.000000 0.658350
4201.500000 0.698405
4202.000000 0.713819
4202.500000 0.748097
4203.000000 0.784008
4203.500000 0.779047
4204.000000 0.803893
4204.500000 0.811427
4205.000000 0.858995
4205.500000 0.831148
4206.000000 0.827698
4206.500000 0.876492
4207.000000 0.858852
4207.500000 0.858730
4208.000000 0.918732
4208.500000 0.900051
4209.000000 0.892967
4209.500000 0.892538
4210.000000 0.911607
4210.500000 0.867488
4211.000000 0.855321
4211.500000 0.899296
4212.000000 0.801995
4212.500000 0.753773
4213.000000 0.766737
4213.500000 0.752221
4214.000000 0.702366
4214.500000 0.716167
4215.000000 0.723006
4215.500000 0.662290
4216.000000 0.638016
4216.500000 0.632503
4217.000000 0.613782
4217.500000 0.600491
4218.000000 0.568377
4218.500000 0.577279
4219.000000 0.539653
4219.500000 0.465298
4220.000000 0.479896
4220.500000 0.486327
4221.000000 0.496739
4221.500000 0.484510
4222.000000 0.433246
4222.500000 0.457724
4223.000000 0.433695
4223.500000 0.421058
4224.000000 0.412769
4224.500000 0.389964
4225.000000 0.363628
4225.500000 0.385779
4226.000000 0.347214
4226.500000 0.385248
4227.000000 0.388086
4227.500000 0.402541
4228.000000 0.440943
4228.500000 0.442045
4229.000000 0.453457
4229.500000 0.481651
4230.000000 0.461072
4230.500000 0.495534
4231.000000 0.492839
4231.500000 0.604085
4232.000000 0.521564
4232.500000 0.543777
4233.000000 0.536100
4233.500000 0.593693
4234.000000 0.589610
4234.500000 0.646896
4235.000000 0.668905
4235.500000 0.603942
4236.000000 0.683216
4236.500000 0.670742
4237.000000 0.699467
4237.500000 0.706143
4238.000000 0.757713
4238.500000 0.738196
4239.000000 0.738196
4239.500000 0.788296
4240.000000 0.742667
4240.500000 0.720556
4241.000000 0.751813
4241.500000 0.820593
4242.000000 0.775515
4242.500000 0.876471
4243.000000 0.908667
4243.500000 0.863344
4244.000000 0.821737
4244.500000 0.849972
4245.000000 0.871857
4245.500000 0.911015
4246.000000 0.964238
4246.500000 0.957767
4247.000000 0.940495
4247.500000 0.967444
4248.000000 1.077342
4248.500000 1.131627
4249.000000 1.117908
4249.500000 1.319595
4250.000000 1.532306
4250.500000 2.076099
4251.000000 1.024873
4251.500000 1.686914
4252.000000 1.904464
4252.500000 0.084892
4253.000000 0.091037
4253.500000 0.099530
4254.000000 0.109963
4254.500000 0.117027
4255.000000 0.105185
4255.500000 0.123131
4256.000000 0.116802
4256.500000 0.151672
4257.000000 0.170373
4257.500000 0.163574
4258.000000 0.180499
4258.500000 0.168474
4259.000000 0.205774
4259.500000 0.235009
4260.000000 0.264326
4260.500000 0.278433
4261.000000 0.323144
4261.500000 0.293561
4262.000000 0.313630
4262.500000 0.352338
4263.000000 0.322613
4263.500000 0.335332
4264.000000 0.377797
4264.500000 0.390924
4265.000000 0.420302
4265.500000 0.363975
4266.000000 0.461583
4266.500000 0.424916
4267.000000 0.445066
4267.500000 0.396130
4268.000000 0.461644
4268.500000 0.490022
4269.000000 0.490246
4269.500000 0.513173
4270.000000 0.469688
4270.500000 0.462257
4271.000000 0.504272
4271.500000 0.453417
4272.000000 0.452457
4272.500000 0.493288
4273.000000 0.482938
4273.500000 0.464543
4274.000000 0.439350
4274.500000 0.414586
4275.000000 0.417648
4275.500000 0.388168
4276.000000 0.394680
4276.500000 0.382349
4277.000000 0.390516
4277.500000 0.385228
4278.000000 0.376653
4278.500000 0.331718
4279.000000 0.327309
4279.500000 0.296420
4280.000000 0.299278
4280.500000 0.300646
4281.000000 0.258160
4281.500000 0.271308
4282.000000 0.252117
4282.500000 0.252730
4283.000000 0.232498
4283.500000 0.230803
4284.000000 0.213368
4284.500000 0.198975
4285.000000 0.172455
4285.500000 0.152448
4286.000000 0.143587
4286.500000 0.120722
4287.000000 0.103716
4287.500000 0.103532
4288.000000 0.077114
4288.500000 0.075889
4289.000000 0.077849
4289.500000 0.087036
4290.000000 0.087955
4290.500000 0.081319
4291.000000 0.092630
4291.500000 0.068253
4292.000000 0.097672
4292.500000 0.082279
4293.000000 0.072255
4293.500000 0.220391
4294.000000 1.554804
4294.500000 1.463035
4295.000000 1.460545
4295.500000 1.442722
4296.000000 1.340153
4296.500000 1.336580
4297.000000 1.327802
4297.500000 1.223743
4298.000000 1.152288
4298.500000 1.196998
4299.000000 1.125135
4299.500000 1.167110
4300.000000 1.164129
4300.500000 1.080343
4301.000000 0.964688
4301.500000 0.996802
4302.000000 0.962973
4302.500000 0.931941
4303.000000 0.931226
4303.500000 0.890334
4304.000000 0.867856
4304.500000 0.802056
4305.000000 0.882106
4305.500000 0.845684
4306.000000 0.728804
4306.500000 0.774780
4307.000000 0.709083
4307.500000 0.666945
4308.000000 0.628359
4308.500000 0.586241
4309.000000 0.578912
4309.500000 0.543470
4310.000000 0.530874
4310.500000 0.515378
4311.000000 0.461174
4311.500000 0.513765
4312.000000 0.445271
4312.500000 0.442596
4313.000000 0.430816
4313.500000 0.424283
4314.000000 0.428489
4314.500000 0.451865
4315.000000 0.409216
4315.500000 0.367466
4316.000000 0.404664
4316.500000 0.381410
4317.000000 0.378532
4317.500000 0.393639
4318.000000 0.359851
4318.500000 0.350827
4319.000000 0.356605
4319.500000 0.358116
4320.000000 0.315427
4320.500000 0.410360
4321.000000 0.412850
4321.500000 0.444556
4322.000000 0.483468
4322.500000 0.481345
4323.000000 0.580566
4323.500000 0.578177
4324.000000 0.596878
4324.500000 0.688789
4325.000000 0.690913
4325.500000 0.721577
4326.000000 0.770085
4326.500000 0.833517
4327.000000 0.819001
4327.500000 0.824595
4328.000000 0.819307
4328.500000 0.895580
4329.000000 0.933043
4329.500000 0.884290
4330.000000 0.954194
4330.500000 0.957522
4331.000000 0.919263
4331.500000 1.013012
4332.000000 1.029855
4332.500000 1.004457
4333.000000 1.067113
4333.500000 0.976508
4334.000000 1.013726
4334.500000 1.037919
4335.000000 1.032590
4335.500000 0.942047
4336.000000 0.904686
4336.500000 0.917180
4337.000000 0.922162
4337.500000 0.844561
4338.000000 0.855055
4338.500000 0.862017
4339.000000 0.775250
4339.500000 0.770493
4340.000000 0.723170
4340.500000 0.719168
4341.000000 0.704591
4341.500000 0.686401
4342.000000 0.662821
4342.500000 0.643405
4343.000000 0.624990
4343.500000 0.577299
4344.000000 0.595183
4344.500000 0.565213
4345.000000 0.544695
4345.500000 0.530159
4346.000000 0.498004
4346.500000 0.520156
4347.000000 0.450191
4347.500000 0.461889
4348.000000 0.487756
4348.500000 0.540714
4349.000000 0.524769
4349.500000 0.575829
4350.000000 0.645324
4350.500000 0.632605
4351.000000 0.643058
4351.500000 0.762409
4352.000000 0.782028
4352.500000 0.844602
4353.000000 0.833374
4353.500000 0.923468
4354.000000 1.041839
4354.500000 0.929777
4355.000000 1.003192
4355.500000 0.983327
4356.000000 1.052455
4356.500000 1.031631
4357.000000 1.118622
4357.500000 1.165864
4358.000000 1.195079
4358.500000 1.226560
4359.000000 1.187648
4359.500000 1.199162
4360.000000 1.222947
4360.500000 1.264145
4361.000000 1.284030
4361.500000 1.287603
4362.000000 1.305753
4362.500000 1.238830
4363.000000 1.291523
4363.500000 1.239320
4364.000000 1.185953
4364.500000 1.161373
4365.000000 1.144979
4365.500000 1.134689
4366.000000 1.119092
4366.500000 1.067950
4367.000000 1.068624
4367.500000 0.966954
4368.000000 0.930430
4368.500000 0.931675
4369.000000 0.960176
4369.500000 0.826044
4370.000000 0.810957
4370.500000 0.816857
4371.000000 0.799116
4371.500000 0.745504
4372.000000 0.776455
4372.500000 0.734031
4373.000000 0.659799
4373.500000 0.676111
4374.000000 0.624419
4374.500000 0.619723
4375.000000 0.611761
4375.500000 0.600900
4376.000000 0.520339
4376.500000 0.550922
4377.000000 0.565315
4377.500000 0.606677
4378.000000 0.610413
4378.500000 0.648815
4379.000000 0.723578
4379.500000 0.705265
4380.000000 0.803914
4380.500000 0.865916
4381.000000 0.955603
4381.500000 0.953969
4382.000000 1.031222
4382.500000 1.053823
4383.000000 1.073667
4383.500000 1.217046
4384.000000 1.170805
4384.500000 1.221272
4385.000000 1.164047
4385.500000 1.265105
4386.000000 1.244261
4386.500000 1.249712
4387.000000 1.337050
4387.500000 1.356098
4388.000000 1.403891
4388.500000 1.345523
4389.000000 1.340582
4389.500000 1.416161
4390.000000 1.371389
4390.500000 1.371655
4391.000000 1.407158
4391.500000 1.384660
4392.000000 1.301057
4392.500000 1.293667
4393.000000 1.239279
4393.500000 1.221599
4394.000000 1.176725
4394.500000 1.145101
4395.000000 1.127891
4395.500000 1.067665
4396.000000 1.008438
4396.500000 1.019912
4397.000000 0.927021
4397.500000 0.920079
4398.000000 0.893314
4398.500000 0.880820
4399.000000 0.844153
4399.500000 0.844357
4400.000000 0.821900
4400.500000 0.759591
4401.000000 0.717780
4401.500000 0.708103
4402.000000 0.632605
4402.500000 0.639302
4403.000000 0.623071
4403.500000 0.600042
4404.000000 0.555291
4404.500000 0.565723
4405.000000 0.606616
4405.500000 0.610516
4406.000000 0.578667
4406.500000 0.652245
4407.000000 0.723802
4407.500000 0.769452
4408.000000 0.783110
4408.500000 0.887986
4409.000000 0.934431
4409.500000 1.058110
4410.000000 0.995393
4410.500000 1.032611
4411.000000 1.104760
4411.500000 1.135812
4412.000000 1.126788
4412.500000 1.151675
4413.000000 1.153839
4413.500000 1.147408
4414.000000 1.238667
4414.500000 1.261838
4415.000000 1.246935
4415.500000 1.318798
4416.000000 1.355873
4416.500000 1.433576
4417.000000 1.323004
4417.500000 1.400135
4418.000000 1.401502
4418.500000 1.438680
4419.000000 1.334702
4419.500000 1.343563
4420.000000 1.316798
4420.500000 1.308693
4421.000000 1.248037
4421.500000 1.198162
4422.000000 1.111517
4422.500000 1.115009
4423.000000 1.085569
4423.500000 1.058028
4424.000000 1.007642
4424.500000 0.984021
4425.000000 1.011664
4425.500000 0.921508
4426.000000 0.932982
4426.500000 0.870428
4427.000000 0.834272
4427.500000 0.776720
4428.000000 0.818143
4428.500000 0.743606
4429.000000 0.719229
4429.500000 0.640955
4430.000000 0.620887
4430.500000 0.622908
4431.000000 0.590753
4431.500000 0.558027
4432.000000 0.542429
4432.500000 0.532221
4433.000000 0.567602
4433.500000 0.531139
4434.000000 0.546614
4434.500000 0.562130
4435.000000 0.590304
4435.500000 0.675723
4436.000000 0.687422
4436.500000 0.729805
4437.000000 0.795911
4437.500000 0.848338
4438.000000 0.890762
4438.500000 0.999394
4439.000000 0.949131
4439.500000 0.956276
4440.000000 1.032999
4440.500000 0.988309
4441.000000 1.034591
4441.500000 1.042022
4442.000000 1.109415
4442.500000 1.155187
4443.000000 1.114947
4443.500000 1.183789
4444.000000 1.195304
4444.500000 1.199468
4445.000000 1.245445
4445.500000 1.307325
4446.000000 1.220497
4446.500000 1.253815
4447.000000 1.200061
4447.500000 1.151430
4448.000000 1.088652
4448.500000 1.138017
4449.000000 1.141876
4449.500000 1.086202
4450.000000 1.098288
4450.500000 1.063010
4451.000000 0.990126
4451.500000 0.939658
4452.000000 0.900909
4452.500000 0.895397
4453.000000 0.880738
4453.500000 0.831618
4454.000000 0.813223
4454.500000 0.786785
4455.000000 0.728886
4455.500000 0.715105
4456.000000 0.745116
4456.500000 0.640098
4457.000000 0.610965
4457.500000 0.629298
4458.000000 0.572624
4458.500000 0.557312
4459.000000 0.497514
4459.500000 0.517828
4460.000000 0.482305
4460.500000 0.485061
4461.000000 0.508110
4461.500000 0.521707
4462.000000 0.484203
4462.500000 0.498352
4463.000000 0.541960
4463.500000 0.582546
4464.000000 0.599226
4464.500000 0.639383
4465.000000 0.712758
4465.500000 0.744300
4466.000000 0.735480
4466.500000 0.836130
4467.000000 0.812570
4467.500000 0.794155
4468.000000 0.823390
4468.500000 0.844133
4469.000000 0.913852
4469.500000 0.911158
4470.000000 0.953051
4470.500000 0.948273
4471.000000 0.937045
4471.500000 0.941312
4472.000000 0.959094
4472.500000 0.930655
4473.000000 0.983613
4473.500000 1.028221
4474.000000 1.005866
4474.500000 0.987104
4475.000000 1.005601
4475.500000 0.998945
4476.000000 0.988390
4476.500000 0.942496
4477.000000 0.883841
4477.500000 0.872796
4478.000000 0.889251
4478.500000 0.823370
4479.000000 0.780517
4479.500000 0.749220
4480.000000 0.708368
4480.500000 0.707633
4481.000000 0.699426
4481.500000 0.640629
4482.000000 0.665413
4482.500000 0.601308
4483.000000 0.617906
4483.500000 0.579014
4484.000000 0.576523
4484.500000 0.530670
4485.000000 0.531343
4485.500000 0.491961
4486.000000 0.452192
4486.500000 0.453519
4487.000000 0.471668
4487.500000 0.387147
4488.000000 0.401050
4488.500000 0.406379
4489.000000 0.410013
4489.500000 0.386351
4490.000000 0.415321
4490.500000 0.435655
4491.000000 0.487490
4491.500000 0.488715
4492.000000 0.520809
4492.500000 0.542021
4493.000000 0.601900
4493.500000 0.615579
4494.000000 0.599083
4494.500000 0.680317
4495.000000 0.659922
4495.500000 0.682154
4496.000000 0.735296
4496.500000 0.726844
4497.000000 0.683441
4497.500000 0.737869
4498.000000 0.777537
4498.500000 0.747219
4499.000000 0.804404
4499.500000 0.772147
4500.000000 0.820512
4500.500000 0.781783
4501.000000 0.778782
4501.500000 0.785009
4502.000000 0.803669
4502.500000 0.840274
4503.000000 0.728151
4503.500000 0.734521
4504.000000 0.671518
4504.500000 0.680827
4505.000000 0.672906
4505.500000 0.688953
4506.000000 0.657227
4506.500000 0.653858
4507.000000 0.620336
4507.500000 0.594959
4508.000000 0.563355
4508.500000 0.528587
4509.000000 0.532630
4509.500000 0.526893
4510.000000 0.517542
4510.500000 0.482754
4511.000000 0.449272
4511.500000 0.459419
4512.000000 0.442351
4512.500000 0.379022
4513.000000 0.359565
4513.500000 0.369181
4514.000000 0.362158
4514.500000 0.358871
4515.000000 0.322838
4515.500000 0.326022
4516.000000 0.337088
4516.500000 0.321449
4517.000000 0.348153
4517.500000 0.340130
4518.000000 0.371059
4518.500000 0.385289
4519.000000 0.409809
4519.500000 0.448108
4520.000000 0.445475
4520.500000 0.455683
4521.000000 0.439575
4521.500000 0.494799
4522.000000 0.479344
4522.500000 0.514970
4523.000000 0.521932
4523.500000 0.519400
4524.000000 0.508723
4524.500000 0.564784
4525.000000 0.515562
4525.500000 0.570297
4526.000000 0.595000
4526.500000 0.550412
4527.000000 0.563233
4527.500000 0.573992
4528.000000 0.630768
4528.500000 0.600022
4529.000000 0.581607
4529.500000 0.602941
4530.000000 0.531997
4530.500000 0.549207
4531.000000 0.556312
4531.500000 0.489164
4532.000000 0.498556
4532.500000 0.470402
4533.000000 0.502088
4533.500000 0.471525
4534.000000 0.465543
4534.500000 0.451579
4535.000000 0.436308
4535.500000 0.402091
4536.000000 0.399662
4536.500000 0.391863
4537.000000 0.372836
4537.500000 0.362771
4538.000000 0.341069
4538.500000 0.331310
4539.000000 0.316958
4539.500000 0.321000
4540.000000 0.324655
4540.500000 0.277882
4541.000000 0.276392
4541.500000 0.268593
4542.000000 0.278454
4542.500000 0.268573
4543.000000 0.240644
4543.500000 0.244176
4544.000000 0.247340
4544.500000 0.233519
4545.000000 0.232253
4545.500000 0.238908
4546.000000 0.238949
4546.500000 0.283047
4547.000000 0.270247
4547.500000 0.276555
4548.000000 0.344417
4548.500000 0.299951
4549.000000 0.326043
4549.500000 0.361056
4550.000000 0.377940
4550.500000 0.364077
4551.000000 0.383207
4551.500000 0.386922
4552.000000 0.386698
4552.500000 0.380634
4553.000000 0.373346
4553.500000 0.389801
4554.000000 0.419241
4554.500000 0.406562
4555.000000 0.428836
4555.500000 0.419894
4556.000000 0.450028
4556.500000 0.409931
4557.000000 0.411503
4557.500000 0.415464
4558.000000 0.391455
4558.500000 0.408441
4559.000000 0.406011
4559.500000 0.377817
4560.000000 0.388433
4560.500000 0.341334
4561.000000 0.355360
4561.500000 0.344744
4562.000000 0.317346
4562.500000 0.337802
4563.000000 0.351726
4563.500000 0.315692
4564.000000 0.323593
4564.500000 0.299625
4565.000000 0.281639
4565.500000 0.276780
4566.000000 0.251852
4566.500000 0.252669
4567.000000 0.247442
4567.500000 0.220881
4568.000000 0.231436
4568.500000 0.205386
4569.000000 0.211592
4569.500000 0.202099
4570.000000 0.198792
4570.500000 0.199118
4571.000000 0.214205
4571.500000 0.187706
4572.000000 0.163452
4572.500000 0.188482
4573.000000 0.211756
4573.500000 0.187992
4574.000000 0.192606
4574.500000 0.226516
4575.000000 0.189931
4575.500000 0.234805
4576.000000 0.267776
4576.500000 0.218248
4577.000000 0.236663
4577.500000 0.253975
4578.000000 0.259365
4578.500000 0.274799
4579.000000 0.264939
4579.500000 0.262223
4580.000000 0.267368
4580.500000 0.284395
4581.000000 0.307199
4581.500000 0.298298
4582.000000 0.262734
4582.500000 0.291030
4583.000000 0.272166
4583.500000 0.298012
4584.000000 0.298686
4584.500000 0.355462
4585.000000 0.302708
4585.500000 0.310466
4586.000000 0.303994
4586.500000 0.282292
4587.000000 0.281087
4587.500000 0.256793
4588.000000 0.273819
4588.500000 0.250831
4589.000000 0.247034
4589.500000 0.239439
4590.000000 0.211898
4590.500000 0.269369
4591.000000 0.221718
4591.500000 0.224352
4592.000000 0.212266
4592.500000 0.211735
4593.000000 0.196199
4593.500000 0.205937
4594.000000 0.208101
4594.500000 0.185031
4595.000000 0.166004
4595.500000 0.185031
4596.000000 0.159471
4596.500000 0.149345
4597.000000 0.174374
4597.500000 0.156633
4598.000000 0.136013
4598.500000 0.162697
4599.000000 0.147283
4599.500000 0.151733
4600.000000 0.168148
4600.500000 0.147344
4601.000000 0.132236
4601.500000 0.135054
4602.000000 0.164534
4602.500000 0.157429
4603.000000 0.166984
4603.500000 0.164003
4604.000000 0.195015
4604.500000 0.195995
4605.000000 0.163289
4605.500000 0.183112
4606.000000 0.173129
4606.500000 0.196423
4607.000000 0.197852
4607.500000 0.207652
4608.000000 0.189155
4608.500000 0.182990
4609.000000 0.186481
4609.500000 0.215104
4610.000000 0.210857
4610.500000 0.238847
4611.000000 0.216329
4611.500000 0.197934
4612.000000 0.201670
4612.500000 0.201262
4613.000000 0.220065
4613.500000 0.215573
4614.000000 0.175803
4614.500000 0.178805
4615.000000 0.187073
4615.500000 0.194831
4616.000000 0.181234
4616.500000 0.182847
4617.000000 0.172843
4617.500000 0.186563
4618.000000 0.174068
4618.500000 0.160655
4619.000000 0.182908
4619.500000 0.162697
4620.000000 0.162166
4620.500000 0.146527
4621.000000 0.181214
4621.500000 0.169862
4622.000000 0.174129
4622.500000 0.163799
4623.000000 0.154224
4623.500000 0.136095
4624.000000 0.143159
4624.500000 0.130746
4625.000000 0.121457
4625.500000 0.152305
4626.000000 0.116353
4626.500000 0.122437
4627.000000 0.117782
4627.500000 0.115475
4628.000000 0.118680
4628.500000 0.125826
4629.000000 0.137177
4629.500000 0.133747
4630.000000 0.142852
4630.500000 0.129807
4631.000000 0.142505
4631.500000 0.150590
4632.000000 0.130828
4632.500000 0.174007
4633.000000 0.158573
4633.500000 0.157388
4634.000000 0.146507
4634.500000 0.164881
4635.000000 0.159512
4635.500000 0.119926
4636.000000 0.139831
4636.500000 0.140260
4637.000000 0.149202
4637.500000 0.146405
4638.000000 0.137401
4638.500000 0.159042
4639.000000 0.158981
4639.500000 0.151815
4640.000000 0.154142
4640.500000 0.167943
4641.000000 0.154796
4641.500000 0.154734
4642.000000 0.137422
4642.500000 0.142628
4643.000000 0.137871
4643.500000 0.144424
4644.000000 0.165473
4644.500000 0.137483
4645.000000 0.125887
4645.500000 0.156551
4646.000000 0.125785
4646.500000 0.115985
4647.000000 0.140709
4647.500000 0.118007
4648.000000 0.135237
4648.500000 0.140607
4649.000000 0.133604
4649.500000 0.125989
4650.000000 0.116782
4650.500000 0.133767
4651.000000 0.130583
4651.500000 0.123723
4652.000000 0.107574
4652.500000 0.117374
4653.000000 0.135115
4653.500000 0.091854
4654.000000 0.104450
4654.500000 0.136728
4655.000000 0.100674
4655.500000 0.124090
4656.000000 0.114291
4656.500000 0.120191
4657.000000 0.106145
4657.500000 0.097958
4658.000000 0.094508
4658.500000 0.109799
4659.000000 0.109534
4659.500000 0.102878
4660.000000 0.116720
4660.500000 0.114148
4661.000000 0.124846
4661.500000 0.123417
4662.000000 0.121436
4662.500000 0.131338
4663.000000 0.140995
4663.500000 0.124601
4664.000000 0.113597
4664.500000 0.117598
4665.000000 0.124335
4665.500000 0.139872
4666.000000 0.112392
4666.500000 0.128071
4667.000000 0.126316
4667.500000 0.127030
4668.000000 0.111188
4668.500000 0.105757
4669.000000 0.129746
4669.500000 0.123845
4670.000000 0.119742
4670.500000 0.120844
4671.000000 0.137401
4671.500000 0.117721
4672.000000 0.117272
4672.500000 0.124070
4673.000000 0.121681
4673.500000 0.102899
4674.000000 0.133339
4674.500000 0.098060
4675.000000 0.088016
4675.500000 0.106451
4676.000000 0.110616
4676.500000 0.103471
4677.000000 0.122335
4677.500000 0.107411
4678.000000 0.116741
4678.500000 0.099489
4679.000000 0.085219
4679.500000 0.108697
4680.000000 0.098734
4680.500000 0.122845
4681.000000 0.121661
4681.500000 0.099694
4682.000000 0.093324
4682.500000 0.079788
4683.000000 0.109983
4683.500000 0.102511
4684.000000 0.091201
4684.500000 0.100776
4685.000000 0.088710
4685.500000 0.107717
4686.000000 0.108003
4686.500000 0.099877
4687.000000 0.098510
4687.500000 0.102593
4688.000000 0.130603
4688.500000 0.091466
4689.000000 0.115332
4689.500000 0.089057
4690.000000 0.096611
4690.500000 0.112372
4691.000000 0.108799
4691.500000 0.088261
4692.000000 0.111494
4692.500000 0.100816
4693.000000 0.120661
4693.500000 0.123151
4694.000000 0.094773
4694.500000 0.101164
4695.000000 0.114924
4695.500000 0.118986
4696.000000 0.110167
4696.500000 0.108023
4697.000000 0.091895
4697.500000 0.097162
4698.000000 0.096325
4698.500000 0.119701
4699.000000 0.120640
4699.500000 0.122865
4700.000000 0.106717
4700.500000 0.085648
4701.000000 0.118415
4701.500000 0.093426
4702.000000 0.085627
4702.500000 0.084014
4703.000000 0.099734
4703.500000 0.103083