0.000000	0.078768
0.500000	0.092875
1.000000	0.090976
1.500000	0.097305
2.000000	0.072316
2.500000	0.069438
3.000000	0.105349
3.500000	0.088649
4.000000	0.106227
4.500000	0.091139
5.000000	0.101490
5.500000	0.089608
6.000000	0.118394
6.500000	0.101980
7.000000	0.097019
7.500000	0.100000
8.000000	0.116149
8.500000	0.107064
9.000000	0.085688
9.500000	0.118905
10.000000	0.093977
10.500000	0.093161
11.000000	0.087526
11.500000	0.079666
12.000000	0.106267
12.500000	0.101899
13.000000	0.088792
13.500000	0.088036
14.000000	0.102021
14.500000	0.088281
15.000000	0.084116
15.500000	0.108003
16.000000	0.105145
16.500000	0.107982
17.000000	0.088261
17.500000	0.089833
18.000000	0.084259
18.500000	0.102674
19.000000	0.092201
19.500000	0.098122
20.000000	0.084341
20.500000	0.098469
21.000000	0.092997
21.500000	0.078237
22.000000	0.093222
22.500000	0.070948
23.000000	0.083381
23.500000	0.093385
24.000000	0.091486
24.500000	0.102531
25.000000	0.105675
25.500000	0.082544
26.000000	0.076910
26.500000	0.098407
27.000000	0.094671
27.500000	0.111433
28.000000	0.072541
28.500000	0.087832
29.000000	0.086791
29.500000	0.110534
30.000000	0.094937
30.500000	0.072051
31.000000	0.084504
31.500000	0.083157
32.000000	0.104022
32.500000	0.105512
33.000000	0.097897
33.500000	0.089690
34.000000	0.095998
34.500000	0.098428
35.000000	0.109350
35.500000	0.108738
36.000000	0.112719
36.500000	0.082014
37.000000	0.102388
37.500000	0.092038
38.000000	0.082871
38.500000	0.094876
39.000000	0.108574
39.500000	0.087587
40.000000	0.089710
40.500000	0.096509
41.000000	0.088506
41.500000	0.101592
42.000000	0.082483
42.500000	0.105839
43.000000	0.094038
43.500000	0.089772
44.000000	0.106104
44.500000	0.097938
45.000000	0.088996
45.500000	0.107697
46.000000	0.094386
46.500000	0.078502
47.000000	0.088485
47.500000	0.083402
48.000000	0.089200
48.500000	0.101388
49.000000	0.109187
49.500000	0.094876
50.000000	0.106512
50.500000	0.083381
51.000000	0.089200
51.500000	0.103368
52.000000	0.094243
52.500000	0.103185
53.000000	0.102348
53.500000	0.102654
54.000000	0.088281
54.500000	0.094263
55.000000	0.103613
55.500000	0.086913
56.000000	0.102001
56.500000	0.093018
57.000000	0.102041
57.500000	0.076706
58.000000	0.101000
58.500000	0.116087
59.000000	0.091058
59.500000	0.105226
60.000000	0.096427
60.500000	0.091160
61.000000	0.096039
61.500000	0.088322
62.000000	0.094814
62.500000	0.087281
63.000000	0.081850
63.500000	0.096529
64.000000	0.093038
64.500000	0.101449
65.000000	0.078359
65.500000	0.090098
66.000000	0.103368
66.500000	0.100776
67.000000	0.085484
67.500000	0.079094
68.000000	0.106431
68.500000	0.094733
69.000000	0.092221
69.500000	0.104348
70.000000	0.086219
70.500000	0.087077
71.000000	0.105635
71.500000	0.102225
72.000000	0.112678
72.500000	0.101470
73.000000	0.101654
73.500000	0.085198
74.000000	0.095406
74.500000	0.096713
75.000000	0.097897
75.500000	0.088690
76.000000	0.097591
76.500000	0.087240
77.000000	0.106737
77.500000	0.092058
78.000000	0.111637
78.500000	0.097979
79.000000	0.090915
79.500000	0.089751
80.000000	0.100755
80.500000	0.114903
81.000000	0.094692
81.500000	0.114454
82.000000	0.093406
82.500000	0.107942
83.000000	0.078604
83.500000	0.101735
84.000000	0.091344
84.500000	0.101694
85.000000	0.091405
85.500000	0.116087
86.000000	0.107982
86.500000	0.108472
87.000000	0.090017
87.500000	0.100633
88.000000	0.110575
88.500000	0.079441
89.000000	0.079380
89.500000	0.090568
90.000000	0.089404
90.500000	0.098142
91.000000	0.081993
91.500000	0.095610
92.000000	0.093548
92.500000	0.111106
93.000000	0.090302
93.500000	0.099122
94.000000	0.111718
94.500000	0.092242
95.000000	0.088322
95.500000	0.093569
96.000000	0.082953
96.500000	0.116618
97.000000	0.083075
97.500000	0.087301
98.000000	0.109718
98.500000	0.087220
99.000000	0.092711
99.500000	0.098040
100.000000	0.088873
100.500000	0.093998
101.000000	0.090486
101.500000	0.096141
102.000000	0.094406
102.500000	0.101470
103.000000	0.100878
103.500000	0.091834
104.000000	0.102695
104.500000	0.102491
105.000000	0.091323
105.500000	0.085607
106.000000	0.103593
106.500000	0.076869
107.000000	0.082932
107.500000	0.089567
108.000000	0.092569
108.500000	0.104716
109.000000	0.086730
109.500000	0.088669
110.000000	0.083381
110.500000	0.099734
111.000000	0.098203
111.500000	0.104859
112.000000	0.096795
112.500000	0.087383
113.000000	0.102919
113.500000	0.085893
114.000000	0.086873
114.500000	0.118558
115.000000	0.097407
115.500000	0.113862
116.000000	0.099959
116.500000	0.091609
117.000000	0.098530
117.500000	0.088547
118.000000	0.073786
118.500000	0.094038
119.000000	0.108023
119.500000	0.087608
120.000000	0.089690
120.500000	0.098754
121.000000	0.083381
121.500000	0.095508
122.000000	0.089527
122.500000	0.082646
123.000000	0.093385
123.500000	0.097877
124.000000	0.098795
124.500000	0.090466
125.000000	0.100919
125.500000	0.099530
126.000000	0.091099
126.500000	0.099653
127.000000	0.075256
127.500000	0.099510
128.000000	0.083831
128.500000	0.099510
129.000000	0.098550
129.500000	0.081422
130.000000	0.081748
130.500000	0.110902
131.000000	0.097448
131.500000	0.086648
132.000000	0.108248
132.500000	0.100898
133.000000	0.094773
133.500000	0.101572
134.000000	0.088996
134.500000	0.120171
135.000000	0.093691
135.500000	0.093181
136.000000	0.091997
136.500000	0.100633
137.000000	0.086954
137.500000	0.105308
138.000000	0.083790
138.500000	0.100041
139.000000	0.093691
139.500000	0.088077
140.000000	0.105430
140.500000	0.112433
141.000000	0.094141
141.500000	0.090547
142.000000	0.102531
142.500000	0.108881
143.000000	0.079952
143.500000	0.105941
144.000000	0.084851
144.500000	0.088240
145.000000	0.079462
145.500000	0.099081
146.000000	0.115067
146.500000	0.092875
147.000000	0.088424
147.500000	0.085464
148.000000	0.113188
148.500000	0.101429
149.000000	0.082565
149.500000	0.119252
150.000000	0.113576
150.500000	0.096019
151.000000	0.089098
151.500000	0.094263
152.000000	0.095427
152.500000	0.093834
153.000000	0.097244
153.500000	0.087975
154.000000	0.089812
154.500000	0.101347
155.000000	0.093324
155.500000	0.111229
156.000000	0.092528
156.500000	0.098346
157.000000	0.097325
157.500000	0.116190
158.000000	0.088567
158.500000	0.093957
159.000000	0.086975
159.500000	0.092344
160.000000	0.090384
160.500000	0.104246
161.000000	0.087465
161.500000	0.093467
162.000000	0.096795
162.500000	0.096162
163.000000	0.100041
163.500000	0.085974
164.000000	0.092528
164.500000	0.096121
165.000000	0.087342
165.500000	0.088547
166.000000	0.110126
166.500000	0.104900
167.000000	0.113801
167.500000	0.101123
168.000000	0.099755
168.500000	0.107043
169.000000	0.078890
169.500000	0.092773
170.000000	0.111004
170.500000	0.091466
171.000000	0.086730
171.500000	0.085546
172.000000	0.099224
172.500000	0.109922
173.000000	0.091425
173.500000	0.088608
174.000000	0.098959
174.500000	0.105430
175.000000	0.095182
175.500000	0.093773
176.000000	0.071397
176.500000	0.108534
177.000000	0.089874
177.500000	0.085464
178.000000	0.102409
178.500000	0.091119
179.000000	0.099122
179.500000	0.106635
180.000000	0.079278
180.500000	0.099714
181.000000	0.078359
181.500000	0.108023
182.000000	0.087342
182.500000	0.099122
183.000000	0.088792
183.500000	0.097427
184.000000	0.107921
184.500000	0.082994
185.000000	0.111576
185.500000	0.102960
186.000000	0.099714
186.500000	0.105573
187.000000	0.091589
187.500000	0.102633
188.000000	0.096754
188.500000	0.116761
189.000000	0.106186
189.500000	0.090588
190.000000	0.100469
190.500000	0.082912
191.000000	0.098897
191.500000	0.091956
192.000000	0.108187
192.500000	0.099306
193.000000	0.095876
193.500000	0.092099
194.000000	0.093834
194.500000	0.098795
195.000000	0.075930
195.500000	0.114046
196.000000	0.082830
196.500000	0.114658
197.000000	0.087158
197.500000	0.103348
198.000000	0.105308
198.500000	0.096733
199.000000	0.106615
199.500000	0.086913
200.000000	0.086260
200.500000	0.108922
201.000000	0.105390
201.500000	0.086219
202.000000	0.096958
202.500000	0.092650
203.000000	0.098040
203.500000	0.097489
204.000000	0.097305
204.500000	0.103471
205.000000	0.075215
205.500000	0.097040
206.000000	0.096182
206.500000	0.109473
207.000000	0.085505
207.500000	0.079543
208.000000	0.091609
208.500000	0.104185
209.000000	0.094365
209.500000	0.105002
210.000000	0.095059
210.500000	0.108187
211.000000	0.106410
211.500000	0.095508
212.000000	0.112556
212.500000	0.086464
213.000000	0.100286
213.500000	0.110371
214.000000	0.078135
214.500000	0.097162
215.000000	0.089894
215.500000	0.086730
216.000000	0.113964
216.500000	0.102286
217.000000	0.104777
217.500000	0.075950
218.000000	0.095835
218.500000	0.107635
219.000000	0.093344
219.500000	0.072520
220.000000	0.096876
220.500000	0.089690
221.000000	0.094386
221.500000	0.104859
222.000000	0.092487
222.500000	0.090425
223.000000	0.094835
223.500000	0.097632
224.000000	0.083769
224.500000	0.096203
225.000000	0.104205
225.500000	0.120926
226.000000	0.096876
226.500000	0.112025
227.000000	0.105063
227.500000	0.093875
228.000000	0.111800
228.500000	0.113290
229.000000	0.083606
229.500000	0.085117
230.000000	0.095672
230.500000	0.094773
231.000000	0.097162
231.500000	0.102429
232.000000	0.084116
232.500000	0.091813
233.000000	0.079727
233.500000	0.090547
234.000000	0.106839
234.500000	0.082667
235.000000	0.102184
235.500000	0.104144
236.000000	0.083402
236.500000	0.106472
237.000000	0.087771
237.500000	0.097468
238.000000	0.088649
238.500000	0.088751
239.000000	0.102041
239.500000	0.112413
240.000000	0.090384
240.500000	0.088118
241.000000	0.087587
241.500000	0.100919
242.000000	0.101817
242.500000	0.087015
243.000000	0.084341
243.500000	0.087240
244.000000	0.088200
244.500000	0.100612
245.000000	0.094549
245.500000	0.093324
246.000000	0.110289
246.500000	0.096835
247.000000	0.113535
247.500000	0.085668
248.000000	0.084729
248.500000	0.089935
249.000000	0.101490
249.500000	0.095386
250.000000	0.085872
250.500000	0.080135
251.000000	0.097366
251.500000	0.086730
252.000000	0.090057
252.500000	0.109452
253.000000	0.102225
253.500000	0.103185
254.000000	0.088771
254.500000	0.074991
255.000000	0.086464
255.500000	0.100612
256.000000	0.079727
256.500000	0.076236
257.000000	0.107697
257.500000	0.105165
258.000000	0.096917
258.500000	0.101225
259.000000	0.096203
259.500000	0.090997
260.000000	0.099285
260.500000	0.100020
261.000000	0.100959
261.500000	0.097570
262.000000	0.097938
262.500000	0.089751
263.000000	0.095855
263.500000	0.087118
264.000000	0.094202
264.500000	0.104083
265.000000	0.098714
265.500000	0.089588
266.000000	0.116720
266.500000	0.101858
267.000000	0.113638
267.500000	0.105063
268.000000	0.081115
268.500000	0.086811
269.000000	0.081667
269.500000	0.096754
270.000000	0.096488
270.500000	0.111106
271.000000	0.083565
271.500000	0.112494
272.000000	0.099796
272.500000	0.111861
273.000000	0.113699
273.500000	0.089772
274.000000	0.098897
274.500000	0.106227
275.000000	0.076910
275.500000	0.099224
276.000000	0.097346
276.500000	0.098550
277.000000	0.093589
277.500000	0.106165
278.000000	0.101409
278.500000	0.082340
279.000000	0.100755
279.500000	0.111371
280.000000	0.088138
280.500000	0.093426
281.000000	0.104634
281.500000	0.101082
282.000000	0.098244
282.500000	0.077012
283.000000	0.090609
283.500000	0.089710
284.000000	0.100041
284.500000	0.098489
285.000000	0.090752
285.500000	0.101490
286.000000	0.093691
286.500000	0.108023
287.000000	0.117129
287.500000	0.117843
288.000000	0.088322
288.500000	0.098530
289.000000	0.111188
289.500000	0.103103
290.000000	0.091139
290.500000	0.104695
291.000000	0.090445
291.500000	0.105083
292.000000	0.088669
292.500000	0.080891
293.000000	0.090057
293.500000	0.102531
294.000000	0.090609
294.500000	0.106165
295.000000	0.104859
295.500000	0.106390
296.000000	0.105083
296.500000	0.089996
297.000000	0.096100
297.500000	0.095876
298.000000	0.089833
298.500000	0.090609
299.000000	0.084504
299.500000	0.114209
300.000000	0.083933
300.500000	0.097142
301.000000	0.100000
301.500000	0.095182
302.000000	0.083708
302.500000	0.087199
303.000000	0.107778
303.500000	0.109044
304.000000	0.086913
304.500000	0.107819
305.000000	0.106227
305.500000	0.101347
306.000000	0.126459
306.500000	0.103797
307.000000	0.099285
307.500000	0.095304
308.000000	0.112249
308.500000	0.111657
309.000000	0.124254
309.500000	0.084545
310.000000	0.107860
310.500000	0.121865
311.000000	0.116516
311.500000	0.093569
312.000000	0.104716
312.500000	0.116557
313.000000	0.095284
313.500000	0.096060
314.000000	0.083729
314.500000	0.086342
315.000000	0.105573
315.500000	0.069580
316.000000	0.088281
316.500000	0.097325
317.000000	0.086730
317.500000	0.102654
318.000000	0.108472
318.500000	0.106267
319.000000	0.110310
319.500000	0.099592
320.000000	0.101633
320.500000	0.109820
321.000000	0.111535
321.500000	0.098979
322.000000	0.089384
322.500000	0.107309
323.000000	0.102184
323.500000	0.093957
324.000000	0.100204
324.500000	0.101102
325.000000	0.126152
325.500000	0.101613
326.000000	0.088730
326.500000	0.107799
327.000000	0.112964
327.500000	0.103552
328.000000	0.115067
328.500000	0.092589
329.000000	0.090874
329.500000	0.101021
330.000000	0.107411
330.500000	0.099244
331.000000	0.093181
331.500000	0.082401
332.000000	0.094120
332.500000	0.106512
333.000000	0.088363
333.500000	0.128296
334.000000	0.124213
334.500000	0.097591
335.000000	0.096550
335.500000	0.102858
336.000000	0.093406
336.500000	0.094447
337.000000	0.113985
337.500000	0.098775
338.000000	0.101899
338.500000	0.109595
339.000000	0.118680
339.500000	0.103552
340.000000	0.102082
340.500000	0.111780
341.000000	0.111821
341.500000	0.105288
342.000000	0.112392
342.500000	0.108860
343.000000	0.116455
343.500000	0.110575
344.000000	0.111188
344.500000	0.115434
345.000000	0.129582
345.500000	0.115271
346.000000	0.103287
346.500000	0.091058
347.000000	0.111412
347.500000	0.113760
348.000000	0.123580
348.500000	0.120048
349.000000	0.113331
349.500000	0.113229
350.000000	0.121089
350.500000	0.102899
351.000000	0.106533
351.500000	0.103695
352.000000	0.113740
352.500000	0.103736
353.000000	0.125295
353.500000	0.102715
354.000000	0.124682
354.500000	0.095386
355.000000	0.101776
355.500000	0.119354
356.000000	0.095835
356.500000	0.115352
357.000000	0.101674
357.500000	0.098714
358.000000	0.111637
358.500000	0.107533
359.000000	0.108289
359.500000	0.114230
360.000000	0.086423
360.500000	0.116312
361.000000	0.124989
361.500000	0.121048
362.000000	0.109350
362.500000	0.106186
363.000000	0.096754
363.500000	0.099469
364.000000	0.114148
364.500000	0.103593
365.000000	0.117169
365.500000	0.091099
366.000000	0.115373
366.500000	0.114475
367.000000	0.116639
367.500000	0.109595
368.000000	0.108146
368.500000	0.096305
369.000000	0.094814
369.500000	0.101061
370.000000	0.086852
370.500000	0.109759
371.000000	0.108962
371.500000	0.114393
372.000000	0.099142
372.500000	0.111269
373.000000	0.099387
373.500000	0.122845
374.000000	0.115291
374.500000	0.108677
375.000000	0.092548
375.500000	0.105839
376.000000	0.104512
376.500000	0.100224
377.000000	0.101837
377.500000	0.138749
378.000000	0.105961
378.500000	0.104900
379.000000	0.124172
379.500000	0.104144
380.000000	0.136299
380.500000	0.116680
381.000000	0.123355
381.500000	0.097815
382.000000	0.140770
382.500000	0.116292
383.000000	0.111453
383.500000	0.111208
384.000000	0.126295
384.500000	0.094018
385.000000	0.121089
385.500000	0.125703
386.000000	0.103818
386.500000	0.113025
387.000000	0.115393
387.500000	0.098326
388.000000	0.128949
388.500000	0.112515
389.000000	0.126254
389.500000	0.110820
390.000000	0.110024
390.500000	0.105328
391.000000	0.121498
391.500000	0.097897
392.000000	0.109207
392.500000	0.132420
393.000000	0.115107
393.500000	0.119191
394.000000	0.127663
394.500000	0.097815
395.000000	0.089710
395.500000	0.114373
396.000000	0.117394
396.500000	0.092446
397.000000	0.094018
397.500000	0.109677
398.000000	0.114413
398.500000	0.102756
399.000000	0.099530
399.500000	0.104879
400.000000	0.118170
400.500000	0.120844
401.000000	0.114025
401.500000	0.109677
402.000000	0.104103
402.500000	0.112168
403.000000	0.106982
403.500000	0.108248
404.000000	0.093875
404.500000	0.125254
405.000000	0.119415
405.500000	0.105043
406.000000	0.114883
406.500000	0.128868
407.000000	0.118660
407.500000	0.108901
408.000000	0.115312
408.500000	0.090956
409.000000	0.093161
409.500000	0.109942
410.000000	0.115026
410.500000	0.102531
411.000000	0.117517
411.500000	0.098407
412.000000	0.097754
412.500000	0.122314
413.000000	0.092405
413.500000	0.110106
414.000000	0.083892
414.500000	0.092752
415.000000	0.099224
415.500000	0.116782
416.000000	0.119272
416.500000	0.110841
417.000000	0.115434
417.500000	0.103920
418.000000	0.099979
418.500000	0.133951
419.000000	0.125336
419.500000	0.131052
420.000000	0.127582
420.500000	0.125969
421.000000	0.128337
421.500000	0.124968
422.000000	0.116618
422.500000	0.108942
423.000000	0.126581
423.500000	0.120028
424.000000	0.103409
424.500000	0.130583
425.000000	0.134482
425.500000	0.108391
426.000000	0.129950
426.500000	0.123621
427.000000	0.135666
427.500000	0.103613
428.000000	0.111494
428.500000	0.118517
429.000000	0.119170
429.500000	0.128929
430.000000	0.123029
430.500000	0.106880
431.000000	0.116210
431.500000	0.134462
432.000000	0.112413
432.500000	0.115495
433.000000	0.110371
433.500000	0.120089
434.000000	0.116945
434.500000	0.104981
435.000000	0.108962
435.500000	0.102021
436.000000	0.092079
436.500000	0.107105
437.000000	0.154081
437.500000	0.117721
438.000000	0.103940
438.500000	0.137320
439.000000	0.109330
439.500000	0.112249
440.000000	0.114230
440.500000	0.118394
441.000000	0.109595
441.500000	0.111739
442.000000	0.127561
442.500000	0.118272
443.000000	0.118497
443.500000	0.112474
444.000000	0.108248
444.500000	0.109534
445.000000	0.093732
445.500000	0.113964
446.000000	0.105145
446.500000	0.100041
447.000000	0.109963
447.500000	0.122212
448.000000	0.126479
448.500000	0.108105
449.000000	0.103920
449.500000	0.124989
450.000000	0.122069
450.500000	0.096774
451.000000	0.117537
451.500000	0.106431
452.000000	0.117149
452.500000	0.103593
453.000000	0.097754
453.500000	0.103756
454.000000	0.106594
454.500000	0.105185
455.000000	0.122784
455.500000	0.116618
456.000000	0.114781
456.500000	0.112515
457.000000	0.127010
457.500000	0.125438
458.000000	0.144976
458.500000	0.137973
459.000000	0.130460
459.500000	0.118905
460.000000	0.121804
460.500000	0.133747
461.000000	0.130848
461.500000	0.146119
462.000000	0.120273
462.500000	0.129786
463.000000	0.128970
463.500000	0.141383
464.000000	0.145854
464.500000	0.122886
465.000000	0.141668
465.500000	0.140158
466.000000	0.133420
466.500000	0.137769
467.000000	0.127561
467.500000	0.119109
468.000000	0.126030
468.500000	0.105716
469.000000	0.131828
469.500000	0.123539
470.000000	0.113413
470.500000	0.117414
471.000000	0.114577
471.500000	0.119007
472.000000	0.135809
472.500000	0.126377
473.000000	0.111759
473.500000	0.107574
474.000000	0.096733
474.500000	0.110861
475.000000	0.119579
475.500000	0.129378
476.000000	0.102184
476.500000	0.117476
477.000000	0.101899
477.500000	0.106410
478.000000	0.103716
478.500000	0.127092
479.000000	0.111208
479.500000	0.115740
480.000000	0.113331
480.500000	0.119476
481.000000	0.099571
481.500000	0.124090
482.000000	0.107431
482.500000	0.115046
483.000000	0.100694
483.500000	0.120069
484.000000	0.113209
484.500000	0.098448
485.000000	0.112270
485.500000	0.114740
486.000000	0.117272
486.500000	0.114148
487.000000	0.103226
487.500000	0.109983
488.000000	0.108146
488.500000	0.105757
489.000000	0.126112
489.500000	0.100510
490.000000	0.115557
490.500000	0.115700
491.000000	0.128541
491.500000	0.108717
492.000000	0.119089
492.500000	0.111473
493.000000	0.090343
493.500000	0.108084
494.000000	0.108472
494.500000	0.110167
495.000000	0.121600
495.500000	0.116394
496.000000	0.131358
496.500000	0.113270
497.000000	0.140954
497.500000	0.116965
498.000000	0.122763
498.500000	0.144649
499.000000	0.132175
499.500000	0.131052
500.000000	0.114025
500.500000	0.112739
501.000000	0.149978
501.500000	0.135197
502.000000	0.139851
502.500000	0.131910
503.000000	0.139647
503.500000	0.125601
504.000000	0.119395
504.500000	0.149794
505.000000	0.134992
505.500000	0.125683
506.000000	0.121212
506.500000	0.138422
507.000000	0.112025
507.500000	0.126254
508.000000	0.114965
508.500000	0.122437
509.000000	0.109636
509.500000	0.093589
510.000000	0.137014
510.500000	0.125622
511.000000	0.107329
511.500000	0.108084
512.000000	0.105778
512.500000	0.098897
513.000000	0.123172
513.500000	0.094386
514.000000	0.098877
514.500000	0.125152
515.000000	0.108166
515.500000	0.113066
516.000000	0.105573
516.500000	0.120599
517.000000	0.132195
517.500000	0.094059
518.000000	0.129072
518.500000	0.100571
519.000000	0.125377
519.500000	0.097121
520.000000	0.116659
520.500000	0.134441
521.000000	0.117517
521.500000	0.124580
522.000000	0.146037
522.500000	0.113699
523.000000	0.114679
523.500000	0.122049
524.000000	0.102123
524.500000	0.120028
525.000000	0.119619
525.500000	0.108248
526.000000	0.114107
526.500000	0.107554
527.000000	0.105675
527.500000	0.092119
528.000000	0.114740
528.500000	0.122498
529.000000	0.097938
529.500000	0.116128
530.000000	0.108064
530.500000	0.097019
531.000000	0.099979
531.500000	0.114556
532.000000	0.112739
532.500000	0.111923
533.000000	0.105512
533.500000	0.105859
534.000000	0.114679
534.500000	0.116761
535.000000	0.128112
535.500000	0.104573
536.000000	0.112535
536.500000	0.124764
537.000000	0.120497
537.500000	0.118782
538.000000	0.112780
538.500000	0.132971
539.000000	0.139994
539.500000	0.128235
540.000000	0.132910
540.500000	0.113801
541.000000	0.140933
541.500000	0.133420
542.000000	0.115883
542.500000	0.127500
543.000000	0.131032
543.500000	0.126499
544.000000	0.129031
544.500000	0.120273
545.000000	0.118905
545.500000	0.116108
546.000000	0.117945
546.500000	0.106165
547.000000	0.109289
547.500000	0.096182
548.000000	0.108227
548.500000	0.094079
549.000000	0.133808
549.500000	0.118211
550.000000	0.088710
550.500000	0.111045
551.000000	0.097325
551.500000	0.121763
552.000000	0.112678
552.500000	0.098285
553.000000	0.101449
553.500000	0.106941
554.000000	0.101939
554.500000	0.094243
555.000000	0.095917
555.500000	0.092956
556.000000	0.116128
556.500000	0.106962
557.000000	0.080442
557.500000	0.109656
558.000000	0.119905
558.500000	0.110044
559.000000	0.106655
559.500000	0.099204
560.000000	0.092977
560.500000	0.096978
561.000000	0.105063
561.500000	0.092752
562.000000	0.111371
562.500000	0.112923
563.000000	0.106063
563.500000	0.121906
564.000000	0.101225
564.500000	0.088914
565.000000	0.094508
565.500000	0.096019
566.000000	0.111800
566.500000	0.106492
567.000000	0.095958
567.500000	0.100551
568.000000	0.093916
568.500000	0.080115
569.000000	0.106615
569.500000	0.103348
570.000000	0.091568
570.500000	0.094590
571.000000	0.094447
571.500000	0.113107
572.000000	0.106145
572.500000	0.103205
573.000000	0.090813
573.500000	0.098836
574.000000	0.116639
574.500000	0.109861
575.000000	0.112556
575.500000	0.133890
576.000000	0.125724
576.500000	0.099204
577.000000	0.087791
577.500000	0.105022
578.000000	0.103532
578.500000	0.102695
579.000000	0.120783
579.500000	0.119640
580.000000	0.115352
580.500000	0.086954
581.000000	0.091997
581.500000	0.102654
582.000000	0.113740
582.500000	0.102082
583.000000	0.103777
583.500000	0.111331
584.000000	0.108064
584.500000	0.092507
585.000000	0.114230
585.500000	0.106492
586.000000	0.091180
586.500000	0.095508
587.000000	0.094896
587.500000	0.113862
588.000000	0.098020
588.500000	0.085015
589.000000	0.129888
589.500000	0.141954
590.000000	0.174905
590.500000	0.181050
591.000000	0.209836
591.500000	0.230232
592.000000	0.273819
592.500000	0.337863
593.000000	0.362097
593.500000	0.182663
594.000000	0.087220
594.500000	0.099469
595.000000	0.096488
595.500000	0.099673
596.000000	0.086730
596.500000	0.094447
597.000000	0.100388
597.500000	0.096427
598.000000	0.111963
598.500000	0.105471
599.000000	0.126071
599.500000	0.118619
600.000000	0.124785
600.500000	0.150365
601.000000	0.170720
601.500000	0.181908
602.000000	0.188972
602.500000	0.194974
603.000000	0.182398
603.500000	0.184378
604.000000	0.222494
604.500000	0.220371
605.000000	0.248116
605.500000	0.222923
606.000000	0.264612
606.500000	0.264061
607.000000	0.263714
607.500000	0.254139
608.000000	0.271410
608.500000	0.300789
609.000000	0.276045
609.500000	0.290989
610.000000	0.262897
610.500000	0.273574
611.000000	0.273370
611.500000	0.266225
612.000000	0.278842
612.500000	0.260018
613.000000	0.272145
613.500000	0.286498
614.000000	0.253302
614.500000	0.262366
615.000000	0.244339
615.500000	0.260651
616.000000	0.251525
616.500000	0.261345
617.000000	0.239051
617.500000	0.205631
618.000000	0.205202
618.500000	0.227884
619.000000	0.209346
619.500000	0.160982
620.000000	0.187645
620.500000	0.162901
621.000000	0.161757
621.500000	0.160410
622.000000	0.151917
622.500000	0.136217
623.000000	0.101368
623.500000	0.120926
624.000000	0.121130
624.500000	0.090772
625.000000	0.115026
625.500000	0.112556
626.000000	0.102082
626.500000	0.083729
627.000000	0.092977
627.500000	0.083381
628.000000	0.098836
628.500000	0.089751
629.000000	0.106676
629.500000	0.085423
630.000000	0.107105
630.500000	0.081932
631.000000	0.078931
631.500000	0.084055
632.000000	0.096243
632.500000	0.101858
633.000000	0.094876
633.500000	0.109575
634.000000	0.090915
634.500000	0.091303
635.000000	0.115393
635.500000	0.101960
636.000000	0.100796
636.500000	0.079584
637.000000	0.086321
637.500000	0.091201
638.000000	0.093038
638.500000	0.107860
639.000000	0.077440
639.500000	0.092711
640.000000	0.086852
640.500000	0.104471
641.000000	0.102429
641.500000	0.094651
642.000000	0.098448
642.500000	0.092344
643.000000	0.075052
643.500000	0.099285
644.000000	0.110636
644.500000	0.106390
645.000000	0.089139
645.500000	0.085505
646.000000	0.097019
646.500000	0.092528
647.000000	0.097632
647.500000	0.087056
648.000000	0.103083
648.500000	0.088526
649.000000	0.100816
649.500000	0.077665
650.000000	0.110514
650.500000	0.092303
651.000000	0.080176
651.500000	0.084055
652.000000	0.105308
652.500000	0.079605
653.000000	0.112780
653.500000	0.102327
654.000000	0.090813
654.500000	0.086342
655.000000	0.098571
655.500000	0.106370
656.000000	0.088547
656.500000	0.076685
657.000000	0.106982
657.500000	0.081728
658.000000	0.112596
658.500000	0.103573
659.000000	0.089874
659.500000	0.092364
660.000000	0.105573
660.500000	0.098285
661.000000	0.093610
661.500000	0.083871
662.000000	0.082361
662.500000	0.084892
663.000000	0.078910
663.500000	0.099204
