0.000000	0.114720
0.500000	0.098857
1.000000	0.115128
1.500000	0.132583
2.000000	0.115414
2.500000	0.118660
3.000000	0.101368
3.500000	0.113066
4.000000	0.111718
4.500000	0.115414
5.000000	0.116067
5.500000	0.098877
6.000000	0.096835
6.500000	0.086138
7.000000	0.102593
7.500000	0.103328
8.000000	0.116394
8.500000	0.114352
9.000000	0.110473
9.500000	0.116700
10.000000	0.106962
10.500000	0.129215
11.000000	0.094365
11.500000	0.104655
12.000000	0.095692
12.500000	0.107758
13.000000	0.108370
13.500000	0.086893
14.000000	0.106022
14.500000	0.099183
15.000000	0.113985
15.500000	0.131930
16.000000	0.121171
16.500000	0.104001
17.000000	0.106962
17.500000	0.101041
18.000000	0.096243
18.500000	0.105349
19.000000	0.090731
19.500000	0.112311
20.000000	0.119660
20.500000	0.107717
21.000000	0.100919
21.500000	0.109309
22.000000	0.102327
22.500000	0.085056
23.000000	0.103756
23.500000	0.107574
24.000000	0.110289
24.500000	0.092671
25.000000	0.100735
25.500000	0.104532
26.000000	0.111269
26.500000	0.112760
27.000000	0.109044
27.500000	0.098326
28.000000	0.098836
28.500000	0.104716
29.000000	0.104655
29.500000	0.101694
30.000000	0.101143
30.500000	0.108962
31.000000	0.092732
31.500000	0.115107
32.000000	0.118476
32.500000	0.109493
33.000000	0.101347
33.500000	0.122518
34.000000	0.111718
34.500000	0.115005
35.000000	0.107227
35.500000	0.099020
36.000000	0.107309
36.500000	0.110861
37.000000	0.110636
37.500000	0.094998
38.000000	0.104695
38.500000	0.104736
39.000000	0.117762
39.500000	0.082340
40.000000	0.099571
40.500000	0.090792
41.000000	0.105410
41.500000	0.092814
42.000000	0.108370
42.500000	0.116639
43.000000	0.104430
43.500000	0.105308
44.000000	0.077073
44.500000	0.089322
45.000000	0.102491
45.500000	0.107737
46.000000	0.119885
46.500000	0.098673
47.000000	0.107247
47.500000	0.115904
48.000000	0.113229
48.500000	0.094467
49.000000	0.109493
49.500000	0.102960
50.000000	0.111310
50.500000	0.099653
51.000000	0.098857
51.500000	0.100245
52.000000	0.103797
52.500000	0.099837
53.000000	0.112801
53.500000	0.101654
54.000000	0.101368
54.500000	0.112433
55.000000	0.101327
55.500000	0.112147
56.000000	0.103491
56.500000	0.100510
57.000000	0.110820
57.500000	0.108513
58.000000	0.094814
58.500000	0.106492
59.000000	0.114270
59.500000	0.112249
60.000000	0.112168
60.500000	0.109330
61.000000	0.104083
61.500000	0.106410
62.000000	0.115781
62.500000	0.113556
63.000000	0.116986
63.500000	0.118517
64.000000	0.103818
64.500000	0.088077
65.000000	0.107656
65.500000	0.105655
66.000000	0.089200
66.500000	0.115618
67.000000	0.099857
67.500000	0.109677
68.000000	0.098673
68.500000	0.118537
69.000000	0.120109
69.500000	0.104369
70.000000	0.095365
70.500000	0.101021
71.000000	0.101306
71.500000	0.102001
72.000000	0.092936
72.500000	0.101674
73.000000	0.109881
73.500000	0.101041
74.000000	0.103920
74.500000	0.113576
75.000000	0.092262
75.500000	0.103961
76.000000	0.088669
76.500000	0.096080
77.000000	0.103593
77.500000	0.124907
78.000000	0.098510
78.500000	0.091589
79.000000	0.111780
79.500000	0.097080
80.000000	0.093712
80.500000	0.100674
81.000000	0.121620
81.500000	0.114658
82.000000	0.115414
82.500000	0.097672
83.000000	0.110616
83.500000	0.113944
84.000000	0.121110
84.500000	0.118292
85.000000	0.099734
85.500000	0.108697
86.000000	0.090629
86.500000	0.102327
87.000000	0.119252
87.500000	0.120926
88.000000	0.109146
88.500000	0.122110
89.000000	0.103266
89.500000	0.100408
90.000000	0.104900
90.500000	0.099775
91.000000	0.099081
91.500000	0.092916
92.000000	0.111637
92.500000	0.099714
93.000000	0.096897
93.500000	0.115495
94.000000	0.104777
94.500000	0.101327
95.000000	0.112841
95.500000	0.098265
96.000000	0.100714
96.500000	0.097305
97.000000	0.101531
97.500000	0.118619
98.000000	0.106574
98.500000	0.117006
99.000000	0.113352
99.500000	0.096488
100.000000	0.090404
100.500000	0.106676
101.000000	0.113883
101.500000	0.125540
102.000000	0.106165
102.500000	0.115842
103.000000	0.100204
103.500000	0.094957
104.000000	0.101245
104.500000	0.105614
105.000000	0.108064
105.500000	0.096631
106.000000	0.103613
106.500000	0.122518
107.000000	0.104920
107.500000	0.105533
108.000000	0.103613
108.500000	0.103328
109.000000	0.115455
109.500000	0.101204
110.000000	0.116884
110.500000	0.108738
111.000000	0.105716
111.500000	0.118660
112.000000	0.104103
112.500000	0.097366
113.000000	0.091160
113.500000	0.112147
114.000000	0.085096
114.500000	0.102205
115.000000	0.124254
115.500000	0.099714
116.000000	0.115700
116.500000	0.115577
117.000000	0.103695
117.500000	0.093406
118.000000	0.121355
118.500000	0.111473
119.000000	0.090404
119.500000	0.096876
120.000000	0.105716
120.500000	0.093610
121.000000	0.090874
121.500000	0.104593
122.000000	0.108758
122.500000	0.108289
123.000000	0.093242
123.500000	0.094671
124.000000	0.109452
124.500000	0.091119
125.000000	0.099142
125.500000	0.102531
126.000000	0.112923
126.500000	0.103491
127.000000	0.100449
127.500000	0.100776
128.000000	0.102103
128.500000	0.101409
129.000000	0.107145
129.500000	0.115107
130.000000	0.110739
130.500000	0.114373
131.000000	0.136585
131.500000	0.102797
132.000000	0.089159
132.500000	0.124989
133.000000	0.113638
133.500000	0.104144
134.000000	0.121620
134.500000	0.094059
135.000000	0.116924
135.500000	0.110249
136.000000	0.096550
136.500000	0.118149
137.000000	0.115312
137.500000	0.099734
138.000000	0.123458
138.500000	0.104205
139.000000	0.113638
139.500000	0.117353
140.000000	0.090364
140.500000	0.095733
141.000000	0.083524
141.500000	0.114760
142.000000	0.089425
142.500000	0.111371
143.000000	0.107350
143.500000	0.116149
144.000000	0.094569
144.500000	0.091976
145.000000	0.110984
145.500000	0.104450
146.000000	0.114883
146.500000	0.104410
147.000000	0.123417
147.500000	0.104634
148.000000	0.111698
148.500000	0.109493
149.000000	0.095937
149.500000	0.114046
150.000000	0.105083
150.500000	0.100020
151.000000	0.108901
151.500000	0.101776
152.000000	0.098428
152.500000	0.103756
153.000000	0.109554
153.500000	0.096713
154.000000	0.110718
154.500000	0.114944
155.000000	0.107656
155.500000	0.092875
156.000000	0.099510
156.500000	0.096345
157.000000	0.107615
157.500000	0.098101
158.000000	0.106962
158.500000	0.112903
159.000000	0.110106
159.500000	0.099714
160.000000	0.122845
160.500000	0.119068
161.000000	0.111963
161.500000	0.106615
162.000000	0.103062
162.500000	0.110596
163.000000	0.100939
163.500000	0.119231
164.000000	0.103716
164.500000	0.097040
165.000000	0.104450
165.500000	0.110208
166.000000	0.108472
166.500000	0.107431
167.000000	0.114883
167.500000	0.101306
168.000000	0.101082
168.500000	0.107227
169.000000	0.121232
169.500000	0.100816
170.000000	0.088424
170.500000	0.085321
171.000000	0.115291
171.500000	0.096713
172.000000	0.105818
172.500000	0.118272
173.000000	0.101184
173.500000	0.110943
174.000000	0.113433
174.500000	0.117843
175.000000	0.106553
175.500000	0.128031
176.000000	0.105410
176.500000	0.105961
177.000000	0.100653
177.500000	0.112331
178.000000	0.101021
178.500000	0.112678
179.000000	0.096713
179.500000	0.114128
180.000000	0.106778
180.500000	0.108881
181.000000	0.100163
181.500000	0.110902
182.000000	0.104144
182.500000	0.103083
183.000000	0.106227
183.500000	0.115414
184.000000	0.097080
184.500000	0.093018
185.000000	0.109534
185.500000	0.131481
186.000000	0.109187
186.500000	0.117312
187.000000	0.101776
187.500000	0.104246
188.000000	0.117353
188.500000	0.097427
189.000000	0.103042
189.500000	0.099571
190.000000	0.102940
190.500000	0.094426
191.000000	0.086444
191.500000	0.111739
192.000000	0.122335
192.500000	0.100102
193.000000	0.113290
193.500000	0.094365
194.000000	0.100020
194.500000	0.092609
195.000000	0.113515
195.500000	0.095753
196.000000	0.110922
196.500000	0.109044
197.000000	0.098224
197.500000	0.090609
198.000000	0.112188
198.500000	0.115352
199.000000	0.117292
199.500000	0.083586
200.000000	0.110106
200.500000	0.092956
201.000000	0.092426
201.500000	0.105124
202.000000	0.104859
202.500000	0.118476
203.000000	0.110718
203.500000	0.111637
204.000000	0.104879
204.500000	0.118782
205.000000	0.093528
205.500000	0.098060
206.000000	0.127643
206.500000	0.108268
207.000000	0.107452
207.500000	0.104471
208.000000	0.119109
208.500000	0.092507
209.000000	0.116169
209.500000	0.093303
210.000000	0.099837
210.500000	0.115475
211.000000	0.102103
211.500000	0.116047
212.000000	0.117496
212.500000	0.118007
213.000000	0.100898
213.500000	0.114699
214.000000	0.104144
214.500000	0.095488
215.000000	0.097387
215.500000	0.106410
216.000000	0.100347
216.500000	0.103879
217.000000	0.107513
217.500000	0.095386
218.000000	0.104063
218.500000	0.102776
219.000000	0.094835
219.500000	0.110555
220.000000	0.101511
220.500000	0.105349
221.000000	0.125315
221.500000	0.104185
222.000000	0.117353
222.500000	0.096141
223.000000	0.100429
223.500000	0.136319
224.000000	0.117333
224.500000	0.092242
225.000000	0.108717
225.500000	0.097815
226.000000	0.123764
226.500000	0.106451
227.000000	0.113842
227.500000	0.095059
228.000000	0.106451
228.500000	0.125254
229.000000	0.098346
229.500000	0.100327
230.000000	0.111902
230.500000	0.117251
231.000000	0.107472
231.500000	0.108922
232.000000	0.127296
232.500000	0.118925
233.000000	0.119762
233.500000	0.105206
234.000000	0.102062
234.500000	0.122131
235.000000	0.129154
235.500000	0.118578
236.000000	0.125111
236.500000	0.099428
237.000000	0.113678
237.500000	0.116884
238.000000	0.106533
238.500000	0.104634
239.000000	0.104022
239.500000	0.114291
240.000000	0.120783
240.500000	0.111004
241.000000	0.119558
241.500000	0.094671
242.000000	0.113148
242.500000	0.109432
243.000000	0.090200
243.500000	0.104879
244.000000	0.122620
244.500000	0.118252
245.000000	0.113740
245.500000	0.108268
246.000000	0.096019
246.500000	0.112556
247.000000	0.113148
247.500000	0.102960
248.000000	0.107676
248.500000	0.106757
249.000000	0.118027
249.500000	0.108738
250.000000	0.109146
250.500000	0.112923
251.000000	0.101674
251.500000	0.096060
252.000000	0.098285
252.500000	0.104655
253.000000	0.098632
253.500000	0.107697
254.000000	0.113148
254.500000	0.115924
255.000000	0.116741
255.500000	0.120885
256.000000	0.102205
256.500000	0.098591
257.000000	0.101082
257.500000	0.090547
258.000000	0.107982
258.500000	0.106370
259.000000	0.105124
259.500000	0.093099
260.000000	0.106778
260.500000	0.104716
261.000000	0.110677
261.500000	0.115148
262.000000	0.090997
262.500000	0.107778
263.000000	0.103246
263.500000	0.110657
264.000000	0.130521
264.500000	0.118844
265.000000	0.112413
265.500000	0.107084
266.000000	0.121641
266.500000	0.124662
267.000000	0.128480
267.500000	0.091976
268.000000	0.113883
268.500000	0.118823
269.000000	0.094733
269.500000	0.108064
270.000000	0.106308
270.500000	0.100224
271.000000	0.119660
271.500000	0.098693
272.000000	0.093201
272.500000	0.120885
273.000000	0.103409
273.500000	0.123213
274.000000	0.105349
274.500000	0.112004
275.000000	0.109677
275.500000	0.098979
276.000000	0.100653
276.500000	0.093303
277.000000	0.093916
277.500000	0.111045
278.000000	0.115924
278.500000	0.132583
279.000000	0.109922
279.500000	0.115781
280.000000	0.120497
280.500000	0.092221
281.000000	0.108125
281.500000	0.117598
282.000000	0.087955
282.500000	0.109983
283.000000	0.100694
283.500000	0.109697
284.000000	0.114209
284.500000	0.087056
285.000000	0.102919
285.500000	0.103246
286.000000	0.101776
286.500000	0.113740
287.000000	0.100041
287.500000	0.097877
288.000000	0.082238
288.500000	0.087995
289.000000	0.115455
289.500000	0.081422
290.000000	0.107064
290.500000	0.101613
291.000000	0.128031
291.500000	0.120579
292.000000	0.101939
292.500000	0.116210
293.000000	0.109167
293.500000	0.101674
294.000000	0.122069
294.500000	0.107839
295.000000	0.127561
295.500000	0.089384
296.000000	0.096448
296.500000	0.118986
297.000000	0.095120
297.500000	0.091466
298.000000	0.096529
298.500000	0.101102
299.000000	0.121886
299.500000	0.114189
300.000000	0.108758
300.500000	0.104859
301.000000	0.095631
301.500000	0.103736
302.000000	0.103613
302.500000	0.105920
303.000000	0.091670
303.500000	0.111208
304.000000	0.106125
304.500000	0.096693
305.000000	0.110779
305.500000	0.096366
306.000000	0.126295
306.500000	0.123008
307.000000	0.106227
307.500000	0.120967
308.000000	0.123396
308.500000	0.113433
309.000000	0.123825
309.500000	0.101919
310.000000	0.100163
310.500000	0.099326
311.000000	0.100959
311.500000	0.113188
312.000000	0.110228
312.500000	0.087567
313.000000	0.099775
313.500000	0.102041
314.000000	0.138749
314.500000	0.101919
315.000000	0.096448
315.500000	0.097325
316.000000	0.109228
316.500000	0.114066
317.000000	0.121273
317.500000	0.103899
318.000000	0.112453
318.500000	0.108534
319.000000	0.103797
319.500000	0.101899
320.000000	0.109269
320.500000	0.112372
321.000000	0.095508
321.500000	0.101980
322.000000	0.105022
322.500000	0.097713
323.000000	0.112474
323.500000	0.109228
324.000000	0.119109
324.500000	0.124335
325.000000	0.106329
325.500000	0.119129
326.000000	0.121498
326.500000	0.095080
327.000000	0.089302
327.500000	0.096448
328.000000	0.117149
328.500000	0.109963
329.000000	0.101306
329.500000	0.105737
330.000000	0.122131
330.500000	0.114025
331.000000	0.099244
331.500000	0.098510
332.000000	0.109718
332.500000	0.095835
333.000000	0.093283
333.500000	0.106819
334.000000	0.114066
334.500000	0.090384
335.000000	0.091976
335.500000	0.088669
336.000000	0.109963
336.500000	0.112311
337.000000	0.105737
337.500000	0.122233
338.000000	0.107697
338.500000	0.104716
339.000000	0.102409
339.500000	0.089567
340.000000	0.104226
340.500000	0.102348
341.000000	0.100102
341.500000	0.122049
342.000000	0.101143
342.500000	0.110167
343.000000	0.102450
343.500000	0.096448
344.000000	0.103818
344.500000	0.112801
345.000000	0.105573
345.500000	0.107860
346.000000	0.109146
346.500000	0.113046
347.000000	0.113474
347.500000	0.091242
348.000000	0.119721
348.500000	0.100857
349.000000	0.115740
349.500000	0.121600
350.000000	0.105226
350.500000	0.096529
351.000000	0.103287
351.500000	0.108472
352.000000	0.118190
352.500000	0.117598
353.000000	0.124927
353.500000	0.114495
354.000000	0.107227
354.500000	0.113515
355.000000	0.093610
355.500000	0.106492
356.000000	0.119089
356.500000	0.109350
357.000000	0.100163
357.500000	0.107758
358.000000	0.084892
358.500000	0.123131
359.000000	0.105778
359.500000	0.118517
360.000000	0.093365
360.500000	0.101490
361.000000	0.089037
361.500000	0.080584
362.000000	0.105430
362.500000	0.102144
363.000000	0.112392
363.500000	0.100816
364.000000	0.116475
364.500000	0.104165
365.000000	0.083096
365.500000	0.116537
366.000000	0.104818
366.500000	0.108003
367.000000	0.106962
367.500000	0.103695
368.000000	0.106370
368.500000	0.095100
369.000000	0.102144
369.500000	0.098224
370.000000	0.100674
370.500000	0.101633
371.000000	0.116353
371.500000	0.093487
372.000000	0.105308
372.500000	0.099796
373.000000	0.103675
373.500000	0.117353
374.000000	0.106492
374.500000	0.104308
375.000000	0.085198
375.500000	0.102368
376.000000	0.087505
376.500000	0.100755
377.000000	0.117251
377.500000	0.115577
378.000000	0.100796
378.500000	0.125152
379.000000	0.110759
379.500000	0.106063
380.000000	0.101143
380.500000	0.092916
381.000000	0.117966
381.500000	0.098285
382.000000	0.099183
382.500000	0.103205
383.000000	0.112882
383.500000	0.103940
384.000000	0.111698
384.500000	0.125438
385.000000	0.114332
385.500000	0.089425
386.000000	0.117578
386.500000	0.117639
387.000000	0.122702
387.500000	0.103920
388.000000	0.122110
388.500000	0.115740
389.000000	0.101551
389.500000	0.109759
390.000000	0.101776
390.500000	0.099163
391.000000	0.087424
391.500000	0.099653
392.000000	0.105247
392.500000	0.112331
393.000000	0.110514
393.500000	0.118558
394.000000	0.106757
394.500000	0.113127
395.000000	0.108799
395.500000	0.110575
396.000000	0.126683
396.500000	0.114679
397.000000	0.105594
397.500000	0.104512
398.000000	0.118660
398.500000	0.117782
399.000000	0.100694
399.500000	0.109146
400.000000	0.115679
400.500000	0.109309
401.000000	0.119783
401.500000	0.102429
402.000000	0.118946
402.500000	0.104389
403.000000	0.094447
403.500000	0.113127
404.000000	0.110555
404.500000	0.101266
405.000000	0.088445
405.500000	0.096590
406.000000	0.110596
406.500000	0.122233
407.000000	0.125969
407.500000	0.109044
408.000000	0.113331
408.500000	0.119456
409.000000	0.105941
409.500000	0.097958
410.000000	0.122049
410.500000	0.086893
411.000000	0.106921
411.500000	0.100286
412.000000	0.101041
412.500000	0.100143
413.000000	0.105961
413.500000	0.104389
414.000000	0.091915
414.500000	0.108819
415.000000	0.114985
415.500000	0.107411
416.000000	0.108717
416.500000	0.106451
417.000000	0.118762
417.500000	0.116782
418.000000	0.105226
418.500000	0.094406
419.000000	0.113107
419.500000	0.116251
420.000000	0.118231
420.500000	0.116577
421.000000	0.116394
421.500000	0.104573
422.000000	0.115148
422.500000	0.110800
423.000000	0.107472
423.500000	0.108146
424.000000	0.097550
424.500000	0.099265
425.000000	0.096427
425.500000	0.092793
426.000000	0.099387
426.500000	0.102736
427.000000	0.115700
427.500000	0.089343
428.000000	0.097080
428.500000	0.124131
429.000000	0.099796
429.500000	0.112821
430.000000	0.099061
430.500000	0.126785
431.000000	0.101837
431.500000	0.126969
432.000000	0.097611
432.500000	0.097734
433.000000	0.116496
433.500000	0.103450
434.000000	0.088873
434.500000	0.122233
435.000000	0.093569
435.500000	0.099040
436.000000	0.117517
436.500000	0.108697
437.000000	0.113454
437.500000	0.128133
438.000000	0.109616
438.500000	0.103062
439.000000	0.119211
439.500000	0.112923
440.000000	0.101817
440.500000	0.097795
441.000000	0.114618
441.500000	0.119089
442.000000	0.104798
442.500000	0.094447
443.000000	0.115904
443.500000	0.098040
444.000000	0.108738
444.500000	0.110902
445.000000	0.109126
445.500000	0.093589
446.000000	0.109616
446.500000	0.116067
447.000000	0.094569
447.500000	0.103981
448.000000	0.090159
448.500000	0.101082
449.000000	0.104981
449.500000	0.101123
450.000000	0.102613
450.500000	0.093222
451.000000	0.110249
451.500000	0.103430
452.000000	0.112208
452.500000	0.117292
453.000000	0.110616
453.500000	0.104961
454.000000	0.109269
454.500000	0.104185
455.000000	0.105859
455.500000	0.113985
456.000000	0.088812
456.500000	0.112943
457.000000	0.115495
457.500000	0.124274
458.000000	0.107207
458.500000	0.096937
459.000000	0.118456
459.500000	0.122825
460.000000	0.107350
460.500000	0.118190
461.000000	0.127643
461.500000	0.087342
462.000000	0.106206
462.500000	0.104736
463.000000	0.098122
463.500000	0.118782
464.000000	0.107309
464.500000	0.091323
465.000000	0.098959
465.500000	0.123274
466.000000	0.117353
466.500000	0.104491
467.000000	0.108636
467.500000	0.106962
468.000000	0.096876
468.500000	0.106819
469.000000	0.117721
469.500000	0.116843
470.000000	0.109881
470.500000	0.107043
471.000000	0.113780
471.500000	0.090221
472.000000	0.095590
472.500000	0.107350
473.000000	0.090119
473.500000	0.085525
474.000000	0.089220
474.500000	0.116598
475.000000	0.118109
475.500000	0.093732
476.000000	0.102225
476.500000	0.109248
477.000000	0.107288
477.500000	0.095815
478.000000	0.114311
478.500000	0.120273
479.000000	0.123274
479.500000	0.084198
480.000000	0.104838
480.500000	0.108983
481.000000	0.089588
481.500000	0.109269
482.000000	0.115904
482.500000	0.107942
483.000000	0.114597
483.500000	0.114985
484.000000	0.120089
484.500000	0.098714
485.000000	0.119966
485.500000	0.112372
486.000000	0.123519
486.500000	0.108860
487.000000	0.091384
487.500000	0.102613
488.000000	0.095304
488.500000	0.126602
489.000000	0.141138
489.500000	0.100469
490.000000	0.106615
490.500000	0.103797
491.000000	0.103042
491.500000	0.100061
492.000000	0.103899
492.500000	0.096897
493.000000	0.102307
493.500000	0.117762
494.000000	0.095386
494.500000	0.106696
495.000000	0.133114
495.500000	0.109248
496.000000	0.116680
496.500000	0.105349
497.000000	0.101715
497.500000	0.099244
498.000000	0.102674
498.500000	0.100959
499.000000	0.108922
499.500000	0.106002
500.000000	0.119619
500.500000	0.098979
501.000000	0.111290
501.500000	0.111698
502.000000	0.107860
502.500000	0.094120
503.000000	0.114413
503.500000	0.133380
504.000000	0.105043
504.500000	0.106431
505.000000	0.115822
505.500000	0.119476
506.000000	0.117006
506.500000	0.099265
507.000000	0.111229
507.500000	0.102715
508.000000	0.114618
508.500000	0.123253
509.000000	0.119313
509.500000	0.119170
510.000000	0.099102
510.500000	0.107472
511.000000	0.103226
511.500000	0.102225
512.000000	0.136156
512.500000	0.120987
513.000000	0.119313
513.500000	0.113086
514.000000	0.103409
514.500000	0.093834
515.000000	0.116353
515.500000	0.103164
516.000000	0.111106
516.500000	0.078849
517.000000	0.108166
517.500000	0.091813
518.000000	0.100735
518.500000	0.117762
519.000000	0.118864
519.500000	0.107901
520.000000	0.106002
520.500000	0.103491
521.000000	0.105185
521.500000	0.118129
522.000000	0.103491
522.500000	0.108942
523.000000	0.112862
523.500000	0.101674
524.000000	0.105798
524.500000	0.086260
525.000000	0.100143
525.500000	0.123458
526.000000	0.108227
526.500000	0.108493
527.000000	0.123662
527.500000	0.107554
528.000000	0.113556
528.500000	0.117721
529.000000	0.116067
529.500000	0.112923
530.000000	0.118599
530.500000	0.109330
531.000000	0.113985
531.500000	0.100184
532.000000	0.080503
532.500000	0.123233
533.000000	0.106900
533.500000	0.116884
534.000000	0.122457
534.500000	0.120681
535.000000	0.111310
535.500000	0.132747
536.000000	0.120314
536.500000	0.121579
537.000000	0.105288
537.500000	0.099347
538.000000	0.090752
538.500000	0.098857
539.000000	0.123743
539.500000	0.102123
540.000000	0.112739
540.500000	0.094222
541.000000	0.110779
541.500000	0.111004
542.000000	0.105267
542.500000	0.107227
543.000000	0.105594
543.500000	0.123723
544.000000	0.114250
544.500000	0.131011
545.000000	0.112066
545.500000	0.130378
546.000000	0.119742
546.500000	0.109330
547.000000	0.102205
547.500000	0.119415
548.000000	0.098387
548.500000	0.097958
549.000000	0.124540
549.500000	0.114883
550.000000	0.123907
550.500000	0.125540
551.000000	0.119681
551.500000	0.107084
552.000000	0.123294
552.500000	0.130440
553.000000	0.099918
553.500000	0.099326
554.000000	0.097509
554.500000	0.107411
555.000000	0.113168
555.500000	0.115883
556.000000	0.103940
556.500000	0.098530
557.000000	0.097448
557.500000	0.116924
558.000000	0.103573
558.500000	0.113046
559.000000	0.114965
559.500000	0.111923
560.000000	0.118823
560.500000	0.113678
561.000000	0.113372
561.500000	0.088016
562.000000	0.121783
562.500000	0.106186
563.000000	0.106186
563.500000	0.105533
564.000000	0.110269
564.500000	0.109228
565.000000	0.109473
565.500000	0.100286
566.000000	0.110187
566.500000	0.125438
567.000000	0.095325
567.500000	0.110167
568.000000	0.112719
568.500000	0.120701
569.000000	0.106247
569.500000	0.104369
570.000000	0.119721
570.500000	0.111657
571.000000	0.121396
571.500000	0.110208
572.000000	0.129480
572.500000	0.116782
573.000000	0.112147
573.500000	0.107472
574.000000	0.111331
574.500000	0.119640
575.000000	0.110330
575.500000	0.112698
576.000000	0.094406
576.500000	0.120334
577.000000	0.125867
577.500000	0.102858
578.000000	0.105798
578.500000	0.100776
579.000000	0.112617
579.500000	0.102041
580.000000	0.108574
580.500000	0.103899
581.000000	0.110351
581.500000	0.111229
582.000000	0.119864
582.500000	0.099265
583.000000	0.127806
583.500000	0.099571
584.000000	0.124458
584.500000	0.121579
585.000000	0.110677
585.500000	0.119619
586.000000	0.106267
586.500000	0.112208
587.000000	0.118803
587.500000	0.096305
588.000000	0.107105
588.500000	0.136605
589.000000	0.110555
589.500000	0.122008
590.000000	0.124601
590.500000	0.108881
591.000000	0.105778
591.500000	0.120579
592.000000	0.132767
592.500000	0.103083
593.000000	0.119048
593.500000	0.105961
594.000000	0.131563
594.500000	0.116435
595.000000	0.090711
595.500000	0.097958
596.000000	0.109167
596.500000	0.100571
597.000000	0.129746
597.500000	0.109697
598.000000	0.114230
598.500000	0.106370
599.000000	0.116618
599.500000	0.104655
600.000000	0.091344
600.500000	0.110616
601.000000	0.117782
601.500000	0.105859
602.000000	0.088485
602.500000	0.109861
603.000000	0.112453
603.500000	0.094814
604.000000	0.105594
604.500000	0.112617
605.000000	0.116373
605.500000	0.101531
606.000000	0.103940
606.500000	0.102899
607.000000	0.116373
607.500000	0.098448
608.000000	0.114903
608.500000	0.103307
609.000000	0.099857
609.500000	0.128296
610.000000	0.114066
610.500000	0.125356
611.000000	0.125907
611.500000	0.126642
612.000000	0.122253
612.500000	0.112494
613.000000	0.117292
613.500000	0.099755
614.000000	0.118864
614.500000	0.102695
615.000000	0.113127
615.500000	0.098959
616.000000	0.100878
616.500000	0.106982
617.000000	0.113638
617.500000	0.103001
618.000000	0.115557
618.500000	0.119558
619.000000	0.110922
619.500000	0.115883
620.000000	0.120946
620.500000	0.122865
621.000000	0.114658
621.500000	0.104287
622.000000	0.098816
622.500000	0.102409
623.000000	0.113964
623.500000	0.103675
624.000000	0.111637
624.500000	0.096897
625.000000	0.120844
625.500000	0.118884
626.000000	0.107350
626.500000	0.107452
627.000000	0.126949
627.500000	0.105430
628.000000	0.108513
628.500000	0.114883
629.000000	0.117864
629.500000	0.111759
630.000000	0.108554
630.500000	0.130644
631.000000	0.100878
631.500000	0.110065
632.000000	0.100204
632.500000	0.093446
633.000000	0.110351
633.500000	0.100939
634.000000	0.097489
634.500000	0.099428
635.000000	0.118497
635.500000	0.099551
636.000000	0.133584
636.500000	0.113188
637.000000	0.111759
637.500000	0.088485
638.000000	0.101266
638.500000	0.123703
639.000000	0.130766
639.500000	0.121824
640.000000	0.111535
640.500000	0.101572
641.000000	0.108166
641.500000	0.107901
642.000000	0.111045
642.500000	0.117741
643.000000	0.116292
643.500000	0.099734
644.000000	0.128316
644.500000	0.102633
645.000000	0.085443
645.500000	0.121845
646.000000	0.101613
646.500000	0.130297
647.000000	0.110371
647.500000	0.114475
648.000000	0.108105
648.500000	0.110187
649.000000	0.099632
649.500000	0.098285
650.000000	0.105757
650.500000	0.090507
651.000000	0.116230
651.500000	0.143097
652.000000	0.136115
652.500000	0.103042
653.000000	0.090159
653.500000	0.118088
654.000000	0.121355
654.500000	0.117700
655.000000	0.123580
655.500000	0.126663
656.000000	0.119640
656.500000	0.112086
657.000000	0.131134
657.500000	0.091589
658.000000	0.086750
658.500000	0.094304
659.000000	0.086423
659.500000	0.127704
660.000000	0.098918
660.500000	0.111045
661.000000	0.112801
661.500000	0.107799
662.000000	0.108840
662.500000	0.121028
663.000000	0.091160
663.500000	0.117721
664.000000	0.119824
664.500000	0.115455
665.000000	0.107390
665.500000	0.135605
666.000000	0.097775
666.500000	0.119374
667.000000	0.129256
667.500000	0.111739
668.000000	0.118762
668.500000	0.105083
669.000000	0.105063
669.500000	0.103328
670.000000	0.119293
670.500000	0.109167
671.000000	0.107880
671.500000	0.098387
672.000000	0.100510
672.500000	0.112229
673.000000	0.115679
673.500000	0.127806
674.000000	0.117394
674.500000	0.097652
675.000000	0.124948
675.500000	0.118844
676.000000	0.101511
676.500000	0.109514
677.000000	0.105859
677.500000	0.117190
678.000000	0.091650
678.500000	0.104369
679.000000	0.115107
679.500000	0.122049
680.000000	0.119538
680.500000	0.123274
681.000000	0.110616
681.500000	0.128786
682.000000	0.099122
682.500000	0.097325
683.000000	0.128868
683.500000	0.088587
684.000000	0.105839
684.500000	0.105328
685.000000	0.127520
685.500000	0.111943
686.000000	0.104593
686.500000	0.121477
687.000000	0.088200
687.500000	0.097979
688.000000	0.109167
688.500000	0.110800
689.000000	0.118966
689.500000	0.100041
690.000000	0.110289
690.500000	0.112882
691.000000	0.119313
691.500000	0.126091
692.000000	0.104022
692.500000	0.103123
693.000000	0.123703
693.500000	0.102409
694.000000	0.112290
694.500000	0.111963
695.000000	0.105614
695.500000	0.105512
696.000000	0.114577
696.500000	0.129337
697.000000	0.104940
697.500000	0.123335
698.000000	0.096999
698.500000	0.116720
699.000000	0.101102
699.500000	0.110106
700.000000	0.110146
700.500000	0.117864
701.000000	0.101102
701.500000	0.117231
702.000000	0.093753
702.500000	0.102899
703.000000	0.098244
703.500000	0.101919
704.000000	0.097182
704.500000	0.147058
705.000000	0.118333
705.500000	0.106880
706.000000	0.107452
706.500000	0.111596
707.000000	0.109371
707.500000	0.097795
708.000000	0.112392
708.500000	0.120252
709.000000	0.100878
709.500000	0.117129
710.000000	0.104675
710.500000	0.110371
711.000000	0.091160
711.500000	0.130583
712.000000	0.123600
712.500000	0.099755
713.000000	0.104185
713.500000	0.106512
714.000000	0.090792
714.500000	0.121028
715.000000	0.142281
715.500000	0.116843
716.000000	0.095488
716.500000	0.112719
717.000000	0.112413
717.500000	0.113617
718.000000	0.121600
718.500000	0.115924
719.000000	0.126234
719.500000	0.109269
720.000000	0.096488
720.500000	0.104798
721.000000	0.119864
721.500000	0.116924
722.000000	0.105839
722.500000	0.112739
723.000000	0.108677
723.500000	0.115945
724.000000	0.123662
724.500000	0.098530
725.000000	0.112290
725.500000	0.095978
726.000000	0.108656
726.500000	0.114046
727.000000	0.108636
727.500000	0.121191
728.000000	0.118047
728.500000	0.086076
729.000000	0.105512
729.500000	0.107819
730.000000	0.120436
730.500000	0.121967
731.000000	0.112311
731.500000	0.111453
732.000000	0.114801
732.500000	0.117149
733.000000	0.118027
733.500000	0.104900
734.000000	0.125417
734.500000	0.123253
735.000000	0.105880
735.500000	0.115373
736.000000	0.097060
736.500000	0.113250
737.000000	0.117149
737.500000	0.106533
738.000000	0.111657
738.500000	0.110228
739.000000	0.121457
739.500000	0.100102
740.000000	0.112045
740.500000	0.116537
741.000000	0.125438
741.500000	0.123560
742.000000	0.106757
742.500000	0.109473
743.000000	0.110861
743.500000	0.086138
744.000000	0.111841
744.500000	0.116496
745.000000	0.097958
745.500000	0.128909
746.000000	0.118354
746.500000	0.126867
747.000000	0.124785
747.500000	0.105267
748.000000	0.125397
748.500000	0.117272
749.000000	0.124703
749.500000	0.105675
750.000000	0.118088
750.500000	0.109269
751.000000	0.110126
751.500000	0.109963
752.000000	0.102286
752.500000	0.132583
753.000000	0.128051
753.500000	0.112311
754.000000	0.105226
754.500000	0.103552
755.000000	0.106757
755.500000	0.107880
756.000000	0.099102
756.500000	0.112392
757.000000	0.106553
757.500000	0.121824
758.000000	0.120334
758.500000	0.117067
759.000000	0.126602
759.500000	0.093936
760.000000	0.104185
760.500000	0.080278
761.000000	0.114924
761.500000	0.133543
762.000000	0.127214
762.500000	0.106819
763.000000	0.125887
763.500000	0.097713
764.000000	0.113801
764.500000	0.089935
765.000000	0.112474
765.500000	0.108432
766.000000	0.121151
766.500000	0.122539
767.000000	0.115842
767.500000	0.111514
768.000000	0.089833
768.500000	0.103287
769.000000	0.105451
769.500000	0.109044
770.000000	0.115434
770.500000	0.094406
771.000000	0.114577
771.500000	0.110555
772.000000	0.112903
772.500000	0.105594
773.000000	0.113168
773.500000	0.106553
774.000000	0.121416
774.500000	0.138361
775.000000	0.113413
775.500000	0.136054
776.000000	0.138871
776.500000	0.124458
777.000000	0.093222
777.500000	0.121130
778.000000	0.116312
778.500000	0.112351
779.000000	0.118149
779.500000	0.108084
780.000000	0.112617
780.500000	0.119334
781.000000	0.114128
781.500000	0.104716
782.000000	0.122906
782.500000	0.123070
783.000000	0.120395
783.500000	0.114270
784.000000	0.119129
784.500000	0.124560
785.000000	0.114556
785.500000	0.093426
786.000000	0.104553
786.500000	0.117680
787.000000	0.104328
787.500000	0.116741
788.000000	0.112637
788.500000	0.109432
789.000000	0.111392
789.500000	0.137218
790.000000	0.119374
790.500000	0.121436
791.000000	0.114128
791.500000	0.107043
792.000000	0.114413
792.500000	0.128500
793.000000	0.119681
793.500000	0.128745
794.000000	0.130501
794.500000	0.099877
795.000000	0.106880
795.500000	0.107901
796.000000	0.121906
796.500000	0.110126
797.000000	0.124233
797.500000	0.129215
798.000000	0.117721
798.500000	0.112453
799.000000	0.111086
799.500000	0.116700
800.000000	0.119252
800.500000	0.120865
801.000000	0.113842
801.500000	0.121926
802.000000	0.122457
802.500000	0.108554
803.000000	0.106553
803.500000	0.106798
804.000000	0.110861
804.500000	0.104471
805.000000	0.119497
805.500000	0.117333
806.000000	0.108513
806.500000	0.120763
807.000000	0.113495
807.500000	0.112617
808.000000	0.116904
808.500000	0.127969
809.000000	0.105798
809.500000	0.102960
810.000000	0.111861
810.500000	0.114944
811.000000	0.102205
811.500000	0.097346
812.000000	0.106002
812.500000	0.115230
813.000000	0.124846
813.500000	0.100306
814.000000	0.120416
814.500000	0.120171
815.000000	0.098979
815.500000	0.120109
816.000000	0.113515
816.500000	0.110085
817.000000	0.113209
817.500000	0.113148
818.000000	0.122661
818.500000	0.088118
819.000000	0.104940
819.500000	0.122641
820.000000	0.095570
820.500000	0.123070
821.000000	0.112719
821.500000	0.107064
822.000000	0.103532
822.500000	0.104430
823.000000	0.136809
823.500000	0.127867
824.000000	0.101776
824.500000	0.108922
825.000000	0.120661
825.500000	0.122355
826.000000	0.120579
826.500000	0.115128
827.000000	0.115291
827.500000	0.115618
828.000000	0.096264
828.500000	0.121967
829.000000	0.118394
829.500000	0.113250
830.000000	0.107921
830.500000	0.131481
831.000000	0.118946
831.500000	0.134829
832.000000	0.117394
832.500000	0.108819
833.000000	0.112556
833.500000	0.107247
834.000000	0.117762
834.500000	0.112066
835.000000	0.112106
835.500000	0.111086
836.000000	0.118231
836.500000	0.113046
837.000000	0.121069
837.500000	0.103675
838.000000	0.115557
838.500000	0.126193
839.000000	0.097509
839.500000	0.098265
840.000000	0.124131
840.500000	0.150325
841.000000	0.114658
841.500000	0.101102
842.000000	0.132808
842.500000	0.126336
843.000000	0.116190
843.500000	0.111331
844.000000	0.101613
844.500000	0.124417
845.000000	0.136891
845.500000	0.124192
846.000000	0.109554
846.500000	0.112188
847.000000	0.116292
847.500000	0.115924
848.000000	0.120456
848.500000	0.092487
849.000000	0.114373
849.500000	0.119476
850.000000	0.103430
850.500000	0.102633
851.000000	0.119783
851.500000	0.119517
852.000000	0.134931
852.500000	0.110024
853.000000	0.106819
853.500000	0.118027
854.000000	0.124968
854.500000	0.134135
855.000000	0.108289
855.500000	0.123948
856.000000	0.102368
856.500000	0.125928
857.000000	0.117945
857.500000	0.111126
858.000000	0.131991
858.500000	0.130195
859.000000	0.101776
859.500000	0.103205
860.000000	0.125336
860.500000	0.114597
861.000000	0.124356
861.500000	0.132073
862.000000	0.097877
862.500000	0.112760
863.000000	0.100367
863.500000	0.113433
864.000000	0.120640
864.500000	0.118578
865.000000	0.111637
865.500000	0.106125
866.000000	0.118782
866.500000	0.110187
867.000000	0.109391
867.500000	0.110187
868.000000	0.126418
868.500000	0.116210
869.000000	0.128561
869.500000	0.110146
870.000000	0.123927
870.500000	0.132992
871.000000	0.113535
871.500000	0.114536
872.000000	0.118047
872.500000	0.128276
873.000000	0.120518
873.500000	0.129582
874.000000	0.115495
874.500000	0.133400
875.000000	0.123498
875.500000	0.115740
876.000000	0.099326
876.500000	0.100041
877.000000	0.113719
877.500000	0.103103
878.000000	0.112188
878.500000	0.113842
879.000000	0.099755
879.500000	0.110779
880.000000	0.128602
880.500000	0.123886
881.000000	0.120069
881.500000	0.121457
882.000000	0.104512
882.500000	0.124519
883.000000	0.100184
883.500000	0.106839
884.000000	0.106247
884.500000	0.109473
885.000000	0.118701
885.500000	0.122028
886.000000	0.110800
886.500000	0.089690
887.000000	0.118680
887.500000	0.116496
888.000000	0.103103
888.500000	0.123560
889.000000	0.123743
889.500000	0.135094
890.000000	0.121375
890.500000	0.088730
891.000000	0.129827
891.500000	0.116271
892.000000	0.108289
892.500000	0.119721
893.000000	0.119068
893.500000	0.122947
894.000000	0.122049
894.500000	0.121947
895.000000	0.120722
895.500000	0.100939
896.000000	0.117517
896.500000	0.127520
897.000000	0.118844
897.500000	0.107656
898.000000	0.111433
898.500000	0.123805
899.000000	0.124070
899.500000	0.105430
900.000000	0.128847
900.500000	0.120967
901.000000	0.127561
901.500000	0.119579
902.000000	0.117129
902.500000	0.111351
903.000000	0.105798
903.500000	0.107554
904.000000	0.107350
904.500000	0.107533
905.000000	0.130317
905.500000	0.092283
906.000000	0.121641
906.500000	0.123968
907.000000	0.099163
907.500000	0.102123
908.000000	0.106329
908.500000	0.118476
909.000000	0.100306
909.500000	0.106839
910.000000	0.106308
910.500000	0.112515
911.000000	0.110677
911.500000	0.118639
912.000000	0.136707
912.500000	0.113168
913.000000	0.122784
913.500000	0.111963
914.000000	0.097060
914.500000	0.117966
915.000000	0.105369
915.500000	0.115495
916.000000	0.107554
916.500000	0.112739
917.000000	0.128214
917.500000	0.096468
918.000000	0.126009
918.500000	0.112719
919.000000	0.133747
919.500000	0.096713
920.000000	0.114740
920.500000	0.119946
921.000000	0.112147
921.500000	0.127030
922.000000	0.099898
922.500000	0.112658
923.000000	0.124376
923.500000	0.121620
924.000000	0.117986
924.500000	0.108105
925.000000	0.120395
925.500000	0.116782
926.000000	0.108084
926.500000	0.128521
927.000000	0.122110
927.500000	0.108166
928.000000	0.110371
928.500000	0.111596
929.000000	0.100714
929.500000	0.110922
930.000000	0.116618
930.500000	0.119170
931.000000	0.115883
931.500000	0.128888
932.000000	0.100102
932.500000	0.126622
933.000000	0.108901
933.500000	0.132747
934.000000	0.110310
934.500000	0.126561
935.000000	0.112188
935.500000	0.124417
936.000000	0.131379
936.500000	0.104695
937.000000	0.126397
937.500000	0.122478
938.000000	0.102552
938.500000	0.122641
939.000000	0.110657
939.500000	0.117884
940.000000	0.116496
940.500000	0.110616
941.000000	0.125193
941.500000	0.109738
942.000000	0.118374
942.500000	0.120314
943.000000	0.125805
943.500000	0.105492
944.000000	0.108962
944.500000	0.118884
945.000000	0.113617
945.500000	0.117823
946.000000	0.106492
946.500000	0.112576
947.000000	0.111596
947.500000	0.124090
948.000000	0.137524
948.500000	0.138484
949.000000	0.104512
949.500000	0.111290
950.000000	0.131460
950.500000	0.091486
951.000000	0.118456
951.500000	0.112658
952.000000	0.109595
952.500000	0.125091
953.000000	0.105941
953.500000	0.099673
954.000000	0.110514
954.500000	0.126928
955.000000	0.122090
955.500000	0.119252
956.000000	0.117966
956.500000	0.114332
957.000000	0.115761
957.500000	0.118047
958.000000	0.106043
958.500000	0.114230
959.000000	0.125867
959.500000	0.131256
960.000000	0.083912
960.500000	0.111514
961.000000	0.132257
961.500000	0.124580
962.000000	0.110494
962.500000	0.101409
963.000000	0.126132
963.500000	0.102838
964.000000	0.128827
964.500000	0.126295
965.000000	0.119109
965.500000	0.112331
966.000000	0.120538
966.500000	0.119783
967.000000	0.087301
967.500000	0.127561
968.000000	0.118374
968.500000	0.122968
969.000000	0.110085
969.500000	0.124805
970.000000	0.102511
970.500000	0.118639
971.000000	0.119966
971.500000	0.134564
972.000000	0.105104
972.500000	0.145302
973.000000	0.126826
973.500000	0.120885
974.000000	0.126520
974.500000	0.108534
975.000000	0.114720
975.500000	0.096325
976.000000	0.106492
976.500000	0.115904
977.000000	0.128868
977.500000	0.099959
978.000000	0.100755
978.500000	0.127745
979.000000	0.119436
979.500000	0.115475
980.000000	0.102858
980.500000	0.112147
981.000000	0.123437
981.500000	0.114801
982.000000	0.137238
982.500000	0.107329
983.000000	0.106186
983.500000	0.116108
984.000000	0.122518
984.500000	0.096407
985.000000	0.110391
985.500000	0.113597
986.000000	0.100224
986.500000	0.109759
987.000000	0.122743
987.500000	0.116271
988.000000	0.127643
988.500000	0.143200
989.000000	0.117986
989.500000	0.123743
990.000000	0.104675
990.500000	0.121600
991.000000	0.118497
991.500000	0.106206
992.000000	0.127459
992.500000	0.123927
993.000000	0.118558
993.500000	0.134176
994.000000	0.105083
994.500000	0.121906
995.000000	0.116169
995.500000	0.132257
996.000000	0.110575
996.500000	0.112004
997.000000	0.116455
997.500000	0.128786
998.000000	0.123478
998.500000	0.127990
999.000000	0.128459
999.500000	0.141628
1000.000000	0.105880
1000.500000	0.101899
1001.000000	0.121967
1001.500000	0.132767
1002.000000	0.133441
1002.500000	0.111351
1003.000000	0.125070
1003.500000	0.116986
1004.000000	0.120722
1004.500000	0.115802
1005.000000	0.109983
1005.500000	0.125458
1006.000000	0.100224
1006.500000	0.115148
1007.000000	0.120497
1007.500000	0.114189
1008.000000	0.108636
1008.500000	0.110820
1009.000000	0.105390
1009.500000	0.124356
1010.000000	0.097223
1010.500000	0.112882
1011.000000	0.135360
1011.500000	0.103634
1012.000000	0.111984
1012.500000	0.115618
1013.000000	0.112698
1013.500000	0.121110
1014.000000	0.123539
1014.500000	0.112494
1015.000000	0.123315
1015.500000	0.123355
1016.000000	0.123498
1016.500000	0.118782
1017.000000	0.106819
1017.500000	0.132318
1018.000000	0.109105
1018.500000	0.087730
1019.000000	0.110902
1019.500000	0.117414
1020.000000	0.122192
1020.500000	0.116373
1021.000000	0.127439
1021.500000	0.122702
1022.000000	0.106043
1022.500000	0.112882
1023.000000	0.099285
1023.500000	0.098162
1024.000000	0.117619
1024.500000	0.111086
1025.000000	0.104512
1025.500000	0.105818
1026.000000	0.133890
1026.500000	0.142077
1027.000000	0.118007
1027.500000	0.126683
1028.000000	0.110432
1028.500000	0.097734
1029.000000	0.112576
1029.500000	0.119803
1030.000000	0.119129
1030.500000	0.121743
1031.000000	0.139402
1031.500000	0.115210
1032.000000	0.126071
1032.500000	0.108268
1033.000000	0.109146
1033.500000	0.113556
1034.000000	0.112270
1034.500000	0.106655
1035.000000	0.108840
1035.500000	0.123029
1036.000000	0.112433
1036.500000	0.129868
1037.000000	0.135748
1037.500000	0.127275
1038.000000	0.120232
1038.500000	0.113556
1039.000000	0.106104
1039.500000	0.119191
1040.000000	0.120334
1040.500000	0.119599
1041.000000	0.113658
1041.500000	0.115373
1042.000000	0.124172
1042.500000	0.107247
1043.000000	0.106492
1043.500000	0.113801
1044.000000	0.109105
1044.500000	0.115720
1045.000000	0.109656
1045.500000	0.121130
1046.000000	0.103348
1046.500000	0.104695
1047.000000	0.108799
1047.500000	0.125172
1048.000000	0.103716
1048.500000	0.129541
1049.000000	0.118946
1049.500000	0.108779
1050.000000	0.108983
1050.500000	0.141689
1051.000000	0.118190
1051.500000	0.104655
1052.000000	0.121845
1052.500000	0.127847
1053.000000	0.109534
1053.500000	0.116761
1054.000000	0.110677
1054.500000	0.107921
1055.000000	0.128153
1055.500000	0.138361
1056.000000	0.101511
1056.500000	0.108758
1057.000000	0.127908
1057.500000	0.107411
1058.000000	0.107472
1058.500000	0.115312
1059.000000	0.112147
1059.500000	0.126214
1060.000000	0.137197
1060.500000	0.114720
1061.000000	0.121865
1061.500000	0.137565
1062.000000	0.119272
1062.500000	0.123335
1063.000000	0.099877
1063.500000	0.120783
1064.000000	0.110534
1064.500000	0.116782
1065.000000	0.107778
1065.500000	0.146425
1066.000000	0.119027
1066.500000	0.124315
1067.000000	0.100796
1067.500000	0.118660
1068.000000	0.132093
1068.500000	0.122825
1069.000000	0.116312
1069.500000	0.128439
1070.000000	0.132910
1070.500000	0.118864
1071.000000	0.131032
1071.500000	0.115985
1072.000000	0.126928
1072.500000	0.141035
1073.000000	0.129970
1073.500000	0.140280
1074.000000	0.101837
1074.500000	0.117169
1075.000000	0.109983
1075.500000	0.132828
1076.000000	0.098734
1076.500000	0.133645
1077.000000	0.102531
1077.500000	0.142648
1078.000000	0.105655
1078.500000	0.123968
1079.000000	0.111984
1079.500000	0.107288
1080.000000	0.095958
1080.500000	0.116537
1081.000000	0.113495
1081.500000	0.124090
1082.000000	0.134462
1082.500000	0.138565
1083.000000	0.115863
1083.500000	0.119701
1084.000000	0.111086
1084.500000	0.143975
1085.000000	0.124662
1085.500000	0.120967
1086.000000	0.134482
1086.500000	0.130807
1087.000000	0.119313
1087.500000	0.115414
1088.000000	0.109432
1088.500000	0.105675
1089.000000	0.106798
1089.500000	0.115924
1090.000000	0.139851
1090.500000	0.118313
1091.000000	0.117251
1091.500000	0.115761
1092.000000	0.133972
1092.500000	0.115516
1093.000000	0.119987
1093.500000	0.116455
1094.000000	0.119701
1094.500000	0.120518
1095.000000	0.107676
1095.500000	0.133584
1096.000000	0.120681
1096.500000	0.116332
1097.000000	0.116822
1097.500000	0.114924
1098.000000	0.138361
1098.500000	0.122314
1099.000000	0.132563
1099.500000	0.116577
1100.000000	0.105328
1100.500000	0.107166
1101.000000	0.103491
1101.500000	0.121824
1102.000000	0.077890
1102.500000	0.125805
1103.000000	0.123253
1103.500000	0.108860
1104.000000	0.116986
1104.500000	0.104083
1105.000000	0.114393
1105.500000	0.117782
1106.000000	0.116598
1106.500000	0.126050
1107.000000	0.122804
1107.500000	0.122947
1108.000000	0.107635
1108.500000	0.114842
1109.000000	0.131379
1109.500000	0.121579
1110.000000	0.115597
1110.500000	0.098060
1111.000000	0.114393
1111.500000	0.126520
1112.000000	0.111943
1112.500000	0.131848
1113.000000	0.103471
1113.500000	0.106757
1114.000000	0.133747
1114.500000	0.107207
1115.000000	0.105594
1115.500000	0.127132
1116.000000	0.102776
1116.500000	0.108370
1117.000000	0.121743
1117.500000	0.108452
1118.000000	0.128970
1118.500000	0.106329
1119.000000	0.104634
1119.500000	0.108717
1120.000000	0.111759
1120.500000	0.111861
1121.000000	0.127929
1121.500000	0.114781
1122.000000	0.119762
1122.500000	0.127030
1123.000000	0.121886
1123.500000	0.132155
1124.000000	0.123519
1124.500000	0.110310
1125.000000	0.121661
1125.500000	0.120477
1126.000000	0.127990
1126.500000	0.138688
1127.000000	0.094528
1127.500000	0.131297
1128.000000	0.119742
1128.500000	0.117598
1129.000000	0.122478
1129.500000	0.134400
1130.000000	0.113699
1130.500000	0.124601
1131.000000	0.121130
1131.500000	0.134380
1132.000000	0.113923
1132.500000	0.112392
1133.000000	0.095876
1133.500000	0.114495
1134.000000	0.114536
1134.500000	0.115210
1135.000000	0.096631
1135.500000	0.102715
1136.000000	0.101347
1136.500000	0.125417
1137.000000	0.104063
1137.500000	0.111086
1138.000000	0.135584
1138.500000	0.123049
1139.000000	0.124254
1139.500000	0.101858
1140.000000	0.140321
1140.500000	0.115883
1141.000000	0.120436
1141.500000	0.149896
1142.000000	0.121314
1142.500000	0.110698
1143.000000	0.103185
1143.500000	0.119129
1144.000000	0.110718
1144.500000	0.116577
1145.000000	0.138871
1145.500000	0.133543
1146.000000	0.119354
1146.500000	0.118946
1147.000000	0.123396
1147.500000	0.127602
1148.000000	0.148283
1148.500000	0.125867
1149.000000	0.146772
1149.500000	0.117333
1150.000000	0.126540
1150.500000	0.118844
1151.000000	0.104593
1151.500000	0.117884
1152.000000	0.121273
1152.500000	0.130338
1153.000000	0.132155
1153.500000	0.105798
1154.000000	0.148120
1154.500000	0.112596
1155.000000	0.119068
1155.500000	0.129439
1156.000000	0.106227
1156.500000	0.117925
1157.000000	0.119783
1157.500000	0.141852
1158.000000	0.111229
1158.500000	0.111065
1159.000000	0.116435
1159.500000	0.100755
1160.000000	0.112841
1160.500000	0.121763
1161.000000	0.119170
1161.500000	0.122335
1162.000000	0.107043
1162.500000	0.124805
1163.000000	0.132298
1163.500000	0.136646
1164.000000	0.132359
1164.500000	0.122743
1165.000000	0.097836
1165.500000	0.124764
1166.000000	0.108248
1166.500000	0.134666
1167.000000	0.108513
1167.500000	0.105247
1168.000000	0.105880
1168.500000	0.121681
1169.000000	0.119027
1169.500000	0.119926
1170.000000	0.124233
1170.500000	0.116128
1171.000000	0.134952
1171.500000	0.113883
1172.000000	0.108329
1172.500000	0.119252
1173.000000	0.120416
1173.500000	0.120089
1174.000000	0.123519
1174.500000	0.136503
1175.000000	0.126867
1175.500000	0.110024
1176.000000	0.134339
1176.500000	0.113433
1177.000000	0.116782
1177.500000	0.115740
1178.000000	0.124111
1178.500000	0.134217
1179.000000	0.128521
1179.500000	0.142220
1180.000000	0.116496
1180.500000	0.117394
1181.000000	0.117231
1181.500000	0.104920
1182.000000	0.127337
1182.500000	0.134645
1183.000000	0.094222
1183.500000	0.113046
1184.000000	0.112474
1184.500000	0.114495
1185.000000	0.125377
1185.500000	0.127582
1186.000000	0.111045
1186.500000	0.143445
1187.000000	0.136524
1187.500000	0.123253
1188.000000	0.129541
1188.500000	0.103716
1189.000000	0.114863
1189.500000	0.113086
1190.000000	0.107452
1190.500000	0.117190
1191.000000	0.098714
1191.500000	0.098999
1192.000000	0.124703
1192.500000	0.141791
1193.000000	0.136442
1193.500000	0.116924
1194.000000	0.114046
1194.500000	0.100816
1195.000000	0.107329
1195.500000	0.118333
1196.000000	0.130705
1196.500000	0.125172
1197.000000	0.119966
1197.500000	0.114801
1198.000000	0.114209
1198.500000	0.133910
1199.000000	0.120395
1199.500000	0.117659
1200.000000	0.108370
1200.500000	0.131440
1201.000000	0.122804
1201.500000	0.119252
1202.000000	0.120763
1202.500000	0.132338
1203.000000	0.101756
1203.500000	0.109044
1204.000000	0.126867
1204.500000	0.121722
1205.000000	0.131705
1205.500000	0.120252
1206.000000	0.124621
1206.500000	0.135789
1207.000000	0.119640
1207.500000	0.122294
1208.000000	0.122804
1208.500000	0.101204
1209.000000	0.130031
1209.500000	0.120824
1210.000000	0.103511
1210.500000	0.126928
1211.000000	0.104491
1211.500000	0.108942
1212.000000	0.116251
1212.500000	0.119354
1213.000000	0.122294
1213.500000	0.129705
1214.000000	0.113107
1214.500000	0.132604
1215.000000	0.123151
1215.500000	0.114270
1216.000000	0.127173
1216.500000	0.126071
1217.000000	0.122682
1217.500000	0.103450
1218.000000	0.115250
1218.500000	0.128888
1219.000000	0.134992
1219.500000	0.127153
1220.000000	0.138259
1220.500000	0.112719
1221.000000	0.086709
1221.500000	0.123253
1222.000000	0.103205
1222.500000	0.120089
1223.000000	0.120293
1223.500000	0.104573
1224.000000	0.105165
1224.500000	0.105839
1225.000000	0.136850
1225.500000	0.113188
1226.000000	0.125601
1226.500000	0.133502
1227.000000	0.110902
1227.500000	0.119109
1228.000000	0.126499
1228.500000	0.112311
1229.000000	0.102429
1229.500000	0.112903
1230.000000	0.115128
1230.500000	0.121089
1231.000000	0.116761
1231.500000	0.123825
1232.000000	0.102960
1232.500000	0.129256
1233.000000	0.114495
1233.500000	0.101368
1234.000000	0.119701
1234.500000	0.119231
1235.000000	0.120844
1235.500000	0.113270
1236.000000	0.115679
1236.500000	0.121355
1237.000000	0.120069
1237.500000	0.141607
1238.000000	0.131685
1238.500000	0.103307
1239.000000	0.116006
1239.500000	0.131542
1240.000000	0.114454
1240.500000	0.117578
1241.000000	0.115189
1241.500000	0.136830
1242.000000	0.153795
1242.500000	0.133257
1243.000000	0.129337
1243.500000	0.137483
1244.000000	0.116496
1244.500000	0.107145
1245.000000	0.096305
1245.500000	0.113597
1246.000000	0.129970
1246.500000	0.120069
1247.000000	0.108268
1247.500000	0.125499
1248.000000	0.123580
1248.500000	0.116863
1249.000000	0.115332
1249.500000	0.096264
1250.000000	0.132175
1250.500000	0.117884
1251.000000	0.110351
1251.500000	0.128092
1252.000000	0.121028
1252.500000	0.115434
1253.000000	0.116332
1253.500000	0.112556
1254.000000	0.120395
1254.500000	0.137708
1255.000000	0.125948
1255.500000	0.130338
1256.000000	0.107350
1256.500000	0.130011
1257.000000	0.102797
1257.500000	0.123417
1258.000000	0.125479
1258.500000	0.105818
1259.000000	0.115822
1259.500000	0.119150
1260.000000	0.112025
1260.500000	0.113290
1261.000000	0.125703
1261.500000	0.121783
1262.000000	0.128684
1262.500000	0.115046
1263.000000	0.131828
1263.500000	0.125132
1264.000000	0.133420
1264.500000	0.124642
1265.000000	0.143322
1265.500000	0.113638
1266.000000	0.120518
1266.500000	0.116720
1267.000000	0.129215
1267.500000	0.133114
1268.000000	0.110167
1268.500000	0.130664
1269.000000	0.117741
1269.500000	0.124907
1270.000000	0.115822
1270.500000	0.123192
1271.000000	0.123498
1271.500000	0.118068
1272.000000	0.128296
1272.500000	0.131420
1273.000000	0.127092
1273.500000	0.135299
1274.000000	0.135809
1274.500000	0.116271
1275.000000	0.122723
1275.500000	0.121396
1276.000000	0.146017
1276.500000	0.115985
1277.000000	0.126540
1277.500000	0.118415
1278.000000	0.117067
1278.500000	0.135544
1279.000000	0.124621
1279.500000	0.110085
1280.000000	0.115352
1280.500000	0.122416
1281.000000	0.126254
1281.500000	0.130746
1282.000000	0.125622
1282.500000	0.118211
1283.000000	0.108513
1283.500000	0.100857
1284.000000	0.119885
1284.500000	0.112739
1285.000000	0.101817
1285.500000	0.128521
1286.000000	0.120028
1286.500000	0.114495
1287.000000	0.119211
1287.500000	0.115189
1288.000000	0.105165
1288.500000	0.128031
1289.000000	0.134768
1289.500000	0.122253
1290.000000	0.142832
1290.500000	0.108391
1291.000000	0.112106
1291.500000	0.115822
1292.000000	0.104961
1292.500000	0.110984
1293.000000	0.107533
1293.500000	0.107615
1294.000000	0.123580
1294.500000	0.111514
1295.000000	0.124968
1295.500000	0.103716
1296.000000	0.114025
1296.500000	0.097775
1297.000000	0.133951
1297.500000	0.125948
1298.000000	0.112413
1298.500000	0.118905
1299.000000	0.123948
1299.500000	0.104450
1300.000000	0.108697
1300.500000	0.123478
1301.000000	0.114250
1301.500000	0.117517
1302.000000	0.098550
1302.500000	0.117088
1303.000000	0.104675
1303.500000	0.109269
1304.000000	0.111371
1304.500000	0.120967
1305.000000	0.115189
1305.500000	0.133645
1306.000000	0.117639
1306.500000	0.129419
1307.000000	0.116577
1307.500000	0.143792
1308.000000	0.130787
1308.500000	0.106308
1309.000000	0.111086
1309.500000	0.112678
1310.000000	0.114638
1310.500000	0.131603
1311.000000	0.135360
1311.500000	0.109207
1312.000000	0.118476
1312.500000	0.138402
1313.000000	0.124723
1313.500000	0.127663
1314.000000	0.116965
1314.500000	0.123784
1315.000000	0.142301
1315.500000	0.133257
1316.000000	0.118721
1316.500000	0.121743
1317.000000	0.119354
1317.500000	0.110943
1318.000000	0.099714
1318.500000	0.130828
1319.000000	0.131808
1319.500000	0.116843
1320.000000	0.113638
1320.500000	0.110351
1321.000000	0.125948
1321.500000	0.133257
1322.000000	0.125091
1322.500000	0.104144
1323.000000	0.125030
1323.500000	0.108677
1324.000000	0.124662
1324.500000	0.124560
1325.000000	0.110881
1325.500000	0.132175
1326.000000	0.130011
1326.500000	0.108125
1327.000000	0.117823
1327.500000	0.117639
1328.000000	0.144996
1328.500000	0.122498
1329.000000	0.111229
1329.500000	0.111963
1330.000000	0.129133
1330.500000	0.120069
1331.000000	0.135278
1331.500000	0.119599
1332.000000	0.118456
1332.500000	0.111963
1333.000000	0.120089
1333.500000	0.098999
1334.000000	0.117272
1334.500000	0.110044
1335.000000	0.108636
1335.500000	0.115352
1336.000000	0.128439
1336.500000	0.116924
1337.000000	0.099979
1337.500000	0.119354
1338.000000	0.110330
1338.500000	0.133073
1339.000000	0.113699
1339.500000	0.121804
1340.000000	0.104961
1340.500000	0.114577
1341.000000	0.124437
1341.500000	0.114393
1342.000000	0.113250
1342.500000	0.112719
1343.000000	0.131501
1343.500000	0.114373
1344.000000	0.118149
1344.500000	0.130256
1345.000000	0.109452
1345.500000	0.124682
1346.000000	0.121559
1346.500000	0.103961
1347.000000	0.106063
1347.500000	0.137238
1348.000000	0.099224
1348.500000	0.106594
1349.000000	0.115455
1349.500000	0.116577
1350.000000	0.117517
1350.500000	0.133318
1351.000000	0.129725
1351.500000	0.128500
1352.000000	0.124131
1352.500000	0.124029
1353.000000	0.125009
1353.500000	0.117639
1354.000000	0.120109
1354.500000	0.113433
1355.000000	0.134870
1355.500000	0.130358
1356.000000	0.134217
1356.500000	0.123355
1357.000000	0.139831
1357.500000	0.113842
1358.000000	0.095835
1358.500000	0.136319
1359.000000	0.149181
1359.500000	0.131481
1360.000000	0.142955
1360.500000	0.126438
1361.000000	0.109963
1361.500000	0.134605
1362.000000	0.117067
1362.500000	0.110432
1363.000000	0.131154
1363.500000	0.135054
1364.000000	0.128827
1364.500000	0.113658
1365.000000	0.124662
1365.500000	0.111167
1366.000000	0.153693
1366.500000	0.112964
1367.000000	0.111861
1367.500000	0.114046
1368.000000	0.122294
1368.500000	0.126928
1369.000000	0.128766
1369.500000	0.104246
1370.000000	0.114230
1370.500000	0.097040
1371.000000	0.122518
1371.500000	0.135911
1372.000000	0.114311
1372.500000	0.121538
1373.000000	0.130685
1373.500000	0.100265
1374.000000	0.108758
1374.500000	0.125785
1375.000000	0.103123
1375.500000	0.137014
1376.000000	0.116741
1376.500000	0.110432
1377.000000	0.099918
1377.500000	0.124723
1378.000000	0.127826
1378.500000	0.088751
1379.000000	0.105900
1379.500000	0.119783
1380.000000	0.123866
1380.500000	0.130052
1381.000000	0.133563
1381.500000	0.126132
1382.000000	0.138994
1382.500000	0.136973
1383.000000	0.128357
1383.500000	0.113148
1384.000000	0.115455
1384.500000	0.133012
1385.000000	0.125581
1385.500000	0.105043
1386.000000	0.125499
1386.500000	0.129807
1387.000000	0.112841
1387.500000	0.125336
1388.000000	0.137156
1388.500000	0.104267
1389.000000	0.102797
1389.500000	0.117333
1390.000000	0.135687
1390.500000	0.109759
1391.000000	0.129480
1391.500000	0.097285
1392.000000	0.109207
1392.500000	0.101776
1393.000000	0.117680
1393.500000	0.124213
1394.000000	0.108656
1394.500000	0.113617
1395.000000	0.136299
1395.500000	0.093385
1396.000000	0.125520
1396.500000	0.119231
1397.000000	0.112413
1397.500000	0.151488
1398.000000	0.129929
1398.500000	0.122804
1399.000000	0.110575
1399.500000	0.135707
1400.000000	0.112617
1400.500000	0.122253
1401.000000	0.126561
1401.500000	0.107207
1402.000000	0.125336
1402.500000	0.127826
1403.000000	0.111188
1403.500000	0.109044
1404.000000	0.113658
1404.500000	0.122131
1405.000000	0.106512
1405.500000	0.107472
1406.000000	0.111861
1406.500000	0.123682
1407.000000	0.119436
1407.500000	0.131726
1408.000000	0.131705
1408.500000	0.133400
1409.000000	0.118374
1409.500000	0.115312
1410.000000	0.118578
1410.500000	0.138096
1411.000000	0.100653
1411.500000	0.127929
1412.000000	0.108595
1412.500000	0.131726
1413.000000	0.094181
1413.500000	0.131746
1414.000000	0.131093
1414.500000	0.121089
1415.000000	0.127010
1415.500000	0.130419
1416.000000	0.105471
1416.500000	0.124192
1417.000000	0.134564
1417.500000	0.105675
1418.000000	0.112515
1418.500000	0.126561
1419.000000	0.138973
1419.500000	0.113025
1420.000000	0.119701
1420.500000	0.103226
1421.000000	0.122273
1421.500000	0.111616
1422.000000	0.120089
1422.500000	0.116537
1423.000000	0.128419
1423.500000	0.147507
1424.000000	0.112004
1424.500000	0.117680
1425.000000	0.126193
1425.500000	0.109330
1426.000000	0.123437
1426.500000	0.100796
1427.000000	0.109534
1427.500000	0.109105
1428.000000	0.108044
1428.500000	0.102981
1429.000000	0.120416
1429.500000	0.145119
1430.000000	0.127561
1430.500000	0.143975
1431.000000	0.119027
1431.500000	0.127439
1432.000000	0.130562
1432.500000	0.137014
1433.000000	0.128868
1433.500000	0.120722
1434.000000	0.129562
1434.500000	0.124356
1435.000000	0.135401
1435.500000	0.138545
1436.000000	0.150815
1436.500000	0.147650
1437.000000	0.120395
1437.500000	0.150059
1438.000000	0.132522
1438.500000	0.169311
1439.000000	0.164493
1439.500000	0.161247
1440.000000	0.140341
1440.500000	0.152223
1441.000000	0.146670
1441.500000	0.146139
1442.000000	0.151754
1442.500000	0.140056
1443.000000	0.150958
1443.500000	0.172496
1444.000000	0.151652
1444.500000	0.146650
1445.000000	0.158144
1445.500000	0.170046
1446.000000	0.151407
1446.500000	0.177518
1447.000000	0.145241
1447.500000	0.159308
1448.000000	0.165800
1448.500000	0.150263
1449.000000	0.162084
1449.500000	0.174048
1450.000000	0.171577
1450.500000	0.161941
1451.000000	0.199282
1451.500000	0.171741
1452.000000	0.179560
1452.500000	0.177906
1453.000000	0.192095
1453.500000	0.218799
1454.000000	0.173027
1454.500000	0.207856
1455.000000	0.175742
1455.500000	0.193136
1456.000000	0.192197
1456.500000	0.184378
1457.000000	0.192483
1457.500000	0.214491
1458.000000	0.194116
1458.500000	0.188012
1459.000000	0.219799
1459.500000	0.199016
1460.000000	0.201262
1460.500000	0.219799
1461.000000	0.198179
1461.500000	0.199853
1462.000000	0.191319
1462.500000	0.235274
1463.000000	0.221616
1463.500000	0.196770
1464.000000	0.227557
1464.500000	0.226149
1465.000000	0.215675
1465.500000	0.240562
1466.000000	0.226924
1466.500000	0.240521
1467.000000	0.228170
1467.500000	0.249280
1468.000000	0.234887
1468.500000	0.241175
1469.000000	0.234703
1469.500000	0.292030
1470.000000	0.238623
1470.500000	0.230048
1471.000000	0.259528
1471.500000	0.232947
1472.000000	0.266449
1472.500000	0.274779
1473.000000	0.245829
1473.500000	0.269695
1474.000000	0.256997
1474.500000	0.273779
1475.000000	0.258446
1475.500000	0.269022
1476.000000	0.252383
1476.500000	0.253424
1477.000000	0.280863
1477.500000	0.264755
1478.000000	0.255057
1478.500000	0.250035
1479.000000	0.242665
1479.500000	0.263224
1480.000000	0.280291
1480.500000	0.279597
1481.000000	0.278188
1481.500000	0.299462
1482.000000	0.263734
1482.500000	0.261815
1483.000000	0.290070
1483.500000	0.264612
1484.000000	0.294419
1484.500000	0.286089
1485.000000	0.286212
1485.500000	0.286477
1486.000000	0.309404
1486.500000	0.272043
1487.000000	0.301748
1487.500000	0.299155
1488.000000	0.293541
1488.500000	0.309302
1489.000000	0.294786
1489.500000	0.322572
1490.000000	0.319306
1490.500000	0.292847
1491.000000	0.308689
1491.500000	0.316856
1492.000000	0.290458
1492.500000	0.339762
1493.000000	0.339476
1493.500000	0.288457
1494.000000	0.324328
1494.500000	0.315325
1495.000000	0.319959
1495.500000	0.346214
1496.000000	0.315855
1496.500000	0.360321
1497.000000	0.338537
1497.500000	0.346969
1498.000000	0.316039
1498.500000	0.309914
1499.000000	0.365057
1499.500000	0.346622
1500.000000	0.333658
1500.500000	0.304178
1501.000000	0.375143
1501.500000	0.344580
1502.000000	0.332147
1502.500000	0.352951
1503.000000	0.352052
1503.500000	0.318877
1504.000000	0.329207
1504.500000	0.318469
1505.000000	0.337904
1505.500000	0.323083
1506.000000	0.344356
1506.500000	0.341987
1507.000000	0.341273
1507.500000	0.328268
1508.000000	0.344887
1508.500000	0.348847
1509.000000	0.333331
1509.500000	0.331841
1510.000000	0.335189
1510.500000	0.352849
1511.000000	0.330493
1511.500000	0.347765
1512.000000	0.315284
1512.500000	0.326227
1513.000000	0.321021
1513.500000	0.329677
1514.000000	0.323858
1514.500000	0.300094
1515.000000	0.352461
1515.500000	0.299441
1516.000000	0.326145
1516.500000	0.320306
1517.000000	0.332310
1517.500000	0.336312
1518.000000	0.331678
1518.500000	0.313405
1519.000000	0.311711
1519.500000	0.326778
1520.000000	0.335822
1520.500000	0.340007
1521.000000	0.293970
1521.500000	0.305198
1522.000000	0.330881
1522.500000	0.338251
1523.000000	0.322143
1523.500000	0.314916
1524.000000	0.308383
1524.500000	0.293194
1525.000000	0.291949
1525.500000	0.293704
1526.000000	0.324246
1526.500000	0.290662
1527.000000	0.327186
1527.500000	0.280189
1528.000000	0.278535
1528.500000	0.296624
1529.000000	0.308751
1529.500000	0.299666
1530.000000	0.261447
1530.500000	0.301891
1531.000000	0.289519
1531.500000	0.310915
1532.000000	0.291663
1532.500000	0.276228
1533.000000	0.292479
1533.500000	0.276249
1534.000000	0.266531
1534.500000	0.262366
1535.000000	0.265857
1535.500000	0.281047
1536.000000	0.293868
1536.500000	0.283333
1537.000000	0.270614
1537.500000	0.274513
1538.000000	0.263203
1538.500000	0.264428
1539.000000	0.249484
1539.500000	0.304892
1540.000000	0.299564
1540.500000	0.273207
1541.000000	0.273860
1541.500000	0.272656
1542.000000	0.262999
1542.500000	0.243584
1543.000000	0.250995
1543.500000	0.239174
1544.000000	0.239888
1544.500000	0.227272
1545.000000	0.213430
1545.500000	0.259916
1546.000000	0.273962
1546.500000	0.255404
1547.000000	0.213368
1547.500000	0.227619
1548.000000	0.246034
1548.500000	0.224801
1549.000000	0.231253
1549.500000	0.217268
1550.000000	0.234172
1550.500000	0.205284
1551.000000	0.214675
1551.500000	0.217104
1552.000000	0.229313
1552.500000	0.229946
1553.000000	0.205570
1553.500000	0.230375
1554.000000	0.227904
1554.500000	0.225332
1555.000000	0.217901
1555.500000	0.208448
1556.000000	0.199547
1556.500000	0.214389
1557.000000	0.226332
1557.500000	0.203201
1558.000000	0.205325
1558.500000	0.178213
1559.000000	0.220085
1559.500000	0.192259
1560.000000	0.198996
1560.500000	0.200813
1561.000000	0.187481
1561.500000	0.198322
1562.000000	0.175293
1562.500000	0.211980
1563.000000	0.191054
1563.500000	0.183949
1564.000000	0.192646
1564.500000	0.179662
1565.000000	0.163391
1565.500000	0.175416
1566.000000	0.152223
1566.500000	0.166208
1567.000000	0.177702
1567.500000	0.171986
1568.000000	0.187685
1568.500000	0.184807
1569.000000	0.135911
1569.500000	0.161247
1570.000000	0.157368
1570.500000	0.171353
1571.000000	0.162370
1571.500000	0.177478
1572.000000	0.140178
1572.500000	0.157246
1573.000000	0.156735
1573.500000	0.158001
1574.000000	0.147691
1574.500000	0.132747
1575.000000	0.160982
1575.500000	0.127888
1576.000000	0.147752
1576.500000	0.160982
1577.000000	0.125601
1577.500000	0.136115
1578.000000	0.141362
1578.500000	0.135258
1579.000000	0.139729
1579.500000	0.143077
1580.000000	0.140341
1580.500000	0.142995
1581.000000	0.113985
1581.500000	0.115985
1582.000000	0.116863
1582.500000	0.126540
1583.000000	0.127316
1583.500000	0.123560
1584.000000	0.122396
1584.500000	0.129276
1585.000000	0.129970
1585.500000	0.145037
1586.000000	0.123641
1586.500000	0.127786
1587.000000	0.119252
1587.500000	0.095733
1588.000000	0.120354
1588.500000	0.114434
1589.000000	0.112168
1589.500000	0.135380
1590.000000	0.116639
1590.500000	0.106676
1591.000000	0.154163
1591.500000	0.141383
1592.000000	0.119905
1592.500000	0.111963
1593.000000	0.114965
1593.500000	0.136891
1594.000000	0.136319
1594.500000	0.116700
1595.000000	0.138055
1595.500000	0.132400
1596.000000	0.119946
1596.500000	0.114985
1597.000000	0.105798
1597.500000	0.131460
1598.000000	0.123743
1598.500000	0.132440
1599.000000	0.129786
1599.500000	0.127949
1600.000000	0.128643
1600.500000	0.110963
1601.000000	0.092487
1601.500000	0.119619
1602.000000	0.124376
1602.500000	0.127949
1603.000000	0.111473
1603.500000	0.140954
1604.000000	0.136483
1604.500000	0.134400
1605.000000	0.125091
1605.500000	0.120681
1606.000000	0.116128
1606.500000	0.118068
1607.000000	0.116394
1607.500000	0.114577
1608.000000	0.114781
1608.500000	0.137687
1609.000000	0.121334
1609.500000	0.149508
1610.000000	0.124989
1610.500000	0.129031
1611.000000	0.139994
1611.500000	0.126112
1612.000000	0.142812
1612.500000	0.123417
1613.000000	0.122539
1613.500000	0.135666
1614.000000	0.126397
1614.500000	0.130705
1615.000000	0.120150
1615.500000	0.128153
1616.000000	0.117169
1616.500000	0.108452
1617.000000	0.116475
1617.500000	0.117700
1618.000000	0.118129
1618.500000	0.138443
1619.000000	0.113005
1619.500000	0.118537
1620.000000	0.126479
1620.500000	0.110453
1621.000000	0.113331
1621.500000	0.113127
1622.000000	0.128602
1622.500000	0.106390
1623.000000	0.125377
1623.500000	0.122212
1624.000000	0.102246
1624.500000	0.113678
1625.000000	0.146609
1625.500000	0.126499
1626.000000	0.152999
1626.500000	0.111453
1627.000000	0.136769
1627.500000	0.142587
1628.000000	0.109432
1628.500000	0.116761
1629.000000	0.123845
1629.500000	0.121334
1630.000000	0.126602
1630.500000	0.120191
1631.000000	0.125948
1631.500000	0.109187
1632.000000	0.118047
1632.500000	0.122212
1633.000000	0.131603
1633.500000	0.119681
1634.000000	0.131154
1634.500000	0.125295
1635.000000	0.124029
1635.500000	0.117945
1636.000000	0.121477
1636.500000	0.116782
1637.000000	0.109697
1637.500000	0.150631
1638.000000	0.116230
1638.500000	0.126132
1639.000000	0.127949
1639.500000	0.124825
1640.000000	0.140076
1640.500000	0.135605
1641.000000	0.124070
1641.500000	0.122620
1642.000000	0.112821
1642.500000	0.123131
1643.000000	0.113433
1643.500000	0.127622
1644.000000	0.120701
1644.500000	0.126214
1645.000000	0.116843
1645.500000	0.139341
1646.000000	0.118190
1646.500000	0.138790
1647.000000	0.143159
1647.500000	0.127357
1648.000000	0.135074
1648.500000	0.128214
1649.000000	0.129603
1649.500000	0.132318
1650.000000	0.149467
1650.500000	0.119681
1651.000000	0.123866
1651.500000	0.115842
1652.000000	0.137279
1652.500000	0.123600
1653.000000	0.112004
1653.500000	0.105920
1654.000000	0.148712
1654.500000	0.133910
1655.000000	0.130174
1655.500000	0.126724
1656.000000	0.121743
1656.500000	0.130521
1657.000000	0.129276
1657.500000	0.125458
1658.000000	0.124662
1658.500000	0.131277
1659.000000	0.128970
1659.500000	0.115230
1660.000000	0.130787
1660.500000	0.127541
1661.000000	0.138769
1661.500000	0.132971
1662.000000	0.121191
1662.500000	0.121253
1663.000000	0.128888
1663.500000	0.150427
1664.000000	0.131113
1664.500000	0.124927
1665.000000	0.121334
1665.500000	0.123315
1666.000000	0.111821
1666.500000	0.116047
1667.000000	0.119109
1667.500000	0.116904
1668.000000	0.130766
1668.500000	0.113515
1669.000000	0.127337
1669.500000	0.126561
1670.000000	0.119579
1670.500000	0.125989
1671.000000	0.123253
1671.500000	0.139790
1672.000000	0.111780
1672.500000	0.133033
1673.000000	0.134298
1673.500000	0.124805
1674.000000	0.123886
1674.500000	0.138626
1675.000000	0.135646
1675.500000	0.124397
1676.000000	0.123988
1676.500000	0.121804
1677.000000	0.122253
1677.500000	0.126214
1678.000000	0.126989
1678.500000	0.120436
1679.000000	0.127377
1679.500000	0.119783
1680.000000	0.127214
1680.500000	0.133829
1681.000000	0.135421
1681.500000	0.125785
1682.000000	0.131113
1682.500000	0.143465
1683.000000	0.130195
1683.500000	0.125601
1684.000000	0.137871
1684.500000	0.131195
1685.000000	0.124131
1685.500000	0.124540
1686.000000	0.125581
1686.500000	0.135850
1687.000000	0.116271
1687.500000	0.132379
1688.000000	0.130256
1688.500000	0.127826
1689.000000	0.122090
1689.500000	0.143914
1690.000000	0.138892
1690.500000	0.148773
1691.000000	0.121988
1691.500000	0.136340
1692.000000	0.149549
1692.500000	0.141138
1693.000000	0.132032
1693.500000	0.134727
1694.000000	0.136034
1694.500000	0.128337
1695.000000	0.124315
1695.500000	0.130950
1696.000000	0.146650
1696.500000	0.117966
1697.000000	0.117027
1697.500000	0.129746
1698.000000	0.117802
1698.500000	0.120620
1699.000000	0.113250
1699.500000	0.120273
1700.000000	0.127806
1700.500000	0.132155
1701.000000	0.129562
1701.500000	0.143179
1702.000000	0.120681
1702.500000	0.128868
1703.000000	0.122886
1703.500000	0.128255
1704.000000	0.143649
1704.500000	0.109901
1705.000000	0.132420
1705.500000	0.141280
1706.000000	0.122273
1706.500000	0.147038
1707.000000	0.136503
1707.500000	0.143261
1708.000000	0.119619
1708.500000	0.122947
1709.000000	0.131603
1709.500000	0.129215
1710.000000	0.153469
1710.500000	0.140015
1711.000000	0.140015
1711.500000	0.121477
1712.000000	0.143669
1712.500000	0.141056
1713.000000	0.147262
1713.500000	0.120967
1714.000000	0.116435
1714.500000	0.143832
1715.000000	0.121253
1715.500000	0.135666
1716.000000	0.127765
1716.500000	0.136483
1717.000000	0.122478
1717.500000	0.145200
1718.000000	0.133849
1718.500000	0.150590
1719.000000	0.137014
1719.500000	0.131665
1720.000000	0.117006
1720.500000	0.129276
1721.000000	0.129521
1721.500000	0.112147
1722.000000	0.145486
1722.500000	0.161349
1723.000000	0.122702
1723.500000	0.128296
1724.000000	0.145221
1724.500000	0.137810
1725.000000	0.145384
1725.500000	0.153162
1726.000000	0.131256
1726.500000	0.133298
1727.000000	0.129480
1727.500000	0.146650
1728.000000	0.130093
1728.500000	0.129888
1729.000000	0.123192
1729.500000	0.123539
1730.000000	0.141117
1730.500000	0.136748
1731.000000	0.134809
1731.500000	0.110167
1732.000000	0.128602
1732.500000	0.136891
1733.000000	0.146323
1733.500000	0.137299
1734.000000	0.135135
1734.500000	0.157123
1735.000000	0.151590
1735.500000	0.132828
1736.000000	0.139953
1736.500000	0.129215
1737.000000	0.147283
1737.500000	0.142383
1738.000000	0.128561
1738.500000	0.120987
1739.000000	0.127990
1739.500000	0.125336
1740.000000	0.149304
1740.500000	0.143526
1741.000000	0.121906
1741.500000	0.124805
1742.000000	0.149957
1742.500000	0.133094
1743.000000	0.122600
1743.500000	0.139096
1744.000000	0.133747
1744.500000	0.138749
1745.000000	0.132706
1745.500000	0.156796
1746.000000	0.152530
1746.500000	0.129235
1747.000000	0.118129
1747.500000	0.127030
1748.000000	0.136667
1748.500000	0.135462
1749.000000	0.128153
1749.500000	0.141035
1750.000000	0.136993
1750.500000	0.138647
1751.000000	0.138953
1751.500000	0.142750
1752.000000	0.125907
1752.500000	0.150651
1753.000000	0.130440
1753.500000	0.122478
1754.000000	0.111453
1754.500000	0.144792
1755.000000	0.128071
1755.500000	0.123723
1756.000000	0.135278
1756.500000	0.130562
1757.000000	0.150447
1757.500000	0.148283
1758.000000	0.133196
1758.500000	0.144629
1759.000000	0.148120
1759.500000	0.138136
1760.000000	0.159920
1760.500000	0.142873
1761.000000	0.132338
1761.500000	0.119926
1762.000000	0.135666
1762.500000	0.126602
1763.000000	0.141015
1763.500000	0.130787
1764.000000	0.149937
1764.500000	0.151876
1765.000000	0.127908
1765.500000	0.159655
1766.000000	0.146527
1766.500000	0.126438
1767.000000	0.134319
1767.500000	0.120783
1768.000000	0.145813
1768.500000	0.133441
1769.000000	0.122988
1769.500000	0.129358
1770.000000	0.131440
1770.500000	0.140525
1771.000000	0.165494
1771.500000	0.130399
1772.000000	0.116720
1772.500000	0.134605
1773.000000	0.129174
1773.500000	0.147977
1774.000000	0.146017
1774.500000	0.128214
1775.000000	0.152795
1775.500000	0.139402
1776.000000	0.134298
1776.500000	0.162860
1777.000000	0.116680
1777.500000	0.147813
1778.000000	0.147140
1778.500000	0.153550
1779.000000	0.133788
1779.500000	0.141219
1780.000000	0.158593
1780.500000	0.128521
1781.000000	0.140790
1781.500000	0.127030
1782.000000	0.128133
1782.500000	0.155102
1783.000000	0.145384
1783.500000	0.124172
1784.000000	0.120946
1784.500000	0.132563
1785.000000	0.139647
1785.500000	0.143771
1786.000000	0.153060
1786.500000	0.159042
1787.000000	0.127173
1787.500000	0.141321
1788.000000	0.118170
1788.500000	0.136197
1789.000000	0.138218
1789.500000	0.143322
1790.000000	0.142750
1790.500000	0.130583
1791.000000	0.115557
1791.500000	0.133237
1792.000000	0.135932
1792.500000	0.149386
1793.000000	0.147997
1793.500000	0.144139
1794.000000	0.128398
1794.500000	0.128235
1795.000000	0.137504
1795.500000	0.147977
1796.000000	0.146813
1796.500000	0.130133
1797.000000	0.143628
1797.500000	0.142424
1798.000000	0.140158
1798.500000	0.158123
1799.000000	0.162737
1799.500000	0.151774
1800.000000	0.135646
1800.500000	0.153999
1801.000000	0.145425
1801.500000	0.149426
1802.000000	0.158001
1802.500000	0.144976
1803.000000	0.165044
1803.500000	0.133380
1804.000000	0.143608
1804.500000	0.141995
1805.000000	0.131644
1805.500000	0.161880
1806.000000	0.144955
1806.500000	0.126254
1807.000000	0.126499
1807.500000	0.164044
1808.000000	0.137994
1808.500000	0.132053
1809.000000	0.166514
1809.500000	0.149447
1810.000000	0.164738
1810.500000	0.153305
1811.000000	0.130460
1811.500000	0.149875
1812.000000	0.131440
1812.500000	0.144302
1813.000000	0.150447
1813.500000	0.151672
1814.000000	0.122498
1814.500000	0.147834
1815.000000	0.152999
1815.500000	0.138034
1816.000000	0.136177
1816.500000	0.158083
1817.000000	0.145425
1817.500000	0.153060
1818.000000	0.142955
1818.500000	0.138769
1819.000000	0.136564
1819.500000	0.157736
1820.000000	0.138177
1820.500000	0.133849
1821.000000	0.153326
1821.500000	0.146384
1822.000000	0.153367
1822.500000	0.151121
1823.000000	0.162125
1823.500000	0.153428
1824.000000	0.165514
1824.500000	0.144588
1825.000000	0.151264
1825.500000	0.156551
1826.000000	0.151509
1826.500000	0.153693
1827.000000	0.145384
1827.500000	0.160043
1828.000000	0.160818
1828.500000	0.150610
1829.000000	0.140341
1829.500000	0.155245
1830.000000	0.151856
1830.500000	0.169556
1831.000000	0.150549
1831.500000	0.154183
1832.000000	0.151039
1832.500000	0.155143
1833.000000	0.137789
1833.500000	0.162043
1834.000000	0.139035
1834.500000	0.144363
1835.000000	0.145854
1835.500000	0.152366
1836.000000	0.157062
1836.500000	0.157899
1837.000000	0.143220
1837.500000	0.141076
1838.000000	0.145159
1838.500000	0.171924
1839.000000	0.161594
1839.500000	0.154775
1840.000000	0.158715
1840.500000	0.130031
1841.000000	0.158920
1841.500000	0.154551
1842.000000	0.170393
1842.500000	0.166045
1843.000000	0.145915
1843.500000	0.161267
1844.000000	0.140933
1844.500000	0.121947
1845.000000	0.147181
1845.500000	0.166657
1846.000000	0.148732
1846.500000	0.151958
1847.000000	0.135891
1847.500000	0.131726
1848.000000	0.135605
1848.500000	0.146609
1849.000000	0.161921
1849.500000	0.155041
1850.000000	0.133686
1850.500000	0.158021
1851.000000	0.172639
1851.500000	0.138463
1852.000000	0.153040
1852.500000	0.158736
1853.000000	0.130909
1853.500000	0.176171
1854.000000	0.176681
1854.500000	0.148712
1855.000000	0.133339
1855.500000	0.162186
1856.000000	0.172639
1856.500000	0.149937
1857.000000	0.169046
1857.500000	0.169781
1858.000000	0.165759
1858.500000	0.163166
1859.000000	0.158552
1859.500000	0.155367
1860.000000	0.154081
1860.500000	0.192177
1861.000000	0.168413
1861.500000	0.153367
1862.000000	0.157817
1862.500000	0.175926
1863.000000	0.152591
1863.500000	0.167413
1864.000000	0.168290
1864.500000	0.154612
1865.000000	0.156429
1865.500000	0.165412
1866.000000	0.166984
1866.500000	0.157225
1867.000000	0.162901
1867.500000	0.167025
1868.000000	0.166024
1868.500000	0.145078
1869.000000	0.152795
1869.500000	0.174742
1870.000000	0.184133
1870.500000	0.169985
1871.000000	0.174660
1871.500000	0.142403
1872.000000	0.169760
1872.500000	0.165779
1873.000000	0.152611
1873.500000	0.155143
1874.000000	0.157246
1874.500000	0.162105
1875.000000	0.176334
1875.500000	0.182949
1876.000000	0.170026
1876.500000	0.186828
1877.000000	0.172680
1877.500000	0.157286
1878.000000	0.160185
1878.500000	0.164983
1879.000000	0.145445
1879.500000	0.149488
1880.000000	0.158756
1880.500000	0.177416
1881.000000	0.157593
1881.500000	0.166780
1882.000000	0.172353
1882.500000	0.164228
1883.000000	0.192381
1883.500000	0.154530
1884.000000	0.160880
1884.500000	0.155286
1885.000000	0.167780
1885.500000	0.150876
1886.000000	0.164861
1886.500000	0.156796
1887.000000	0.169801
1887.500000	0.153264
1888.000000	0.190870
1888.500000	0.151203
1889.000000	0.168454
1889.500000	0.159655
1890.000000	0.143404
1890.500000	0.194566
1891.000000	0.175599
1891.500000	0.136217
1892.000000	0.155388
1892.500000	0.191360
1893.000000	0.150876
1893.500000	0.172210
1894.000000	0.179233
1894.500000	0.180254
1895.000000	0.172292
1895.500000	0.168188
1896.000000	0.158675
1896.500000	0.170332
1897.000000	0.177886
1897.500000	0.175681
1898.000000	0.183174
1898.500000	0.166841
1899.000000	0.191911
1899.500000	0.167474
1900.000000	0.163656
1900.500000	0.159940
1901.000000	0.155408
1901.500000	0.168801
1902.000000	0.183868
1902.500000	0.154102
1903.000000	0.187787
1903.500000	0.161860
1904.000000	0.169352
1904.500000	0.172292
1905.000000	0.168393
1905.500000	0.155469
1906.000000	0.174517
1906.500000	0.177396
1907.000000	0.174497
1907.500000	0.166167
1908.000000	0.160757
1908.500000	0.172088
1909.000000	0.169597
1909.500000	0.181091
1910.000000	0.174721
1910.500000	0.193259
1911.000000	0.149079
1911.500000	0.167453
1912.000000	0.189135
1912.500000	0.164350
1913.000000	0.176334
1913.500000	0.163493
1914.000000	0.138320
1914.500000	0.172047
1915.000000	0.164534
1915.500000	0.161860
1916.000000	0.166351
1916.500000	0.179682
1917.000000	0.188012
1917.500000	0.179131
1918.000000	0.166514
1918.500000	0.192728
1919.000000	0.204243
1919.500000	0.179825
1920.000000	0.191503
1920.500000	0.171271
1921.000000	0.162676
1921.500000	0.172619
1922.000000	0.167229
1922.500000	0.185501
1923.000000	0.162962
1923.500000	0.199465
1924.000000	0.169577
1924.500000	0.170700
1925.000000	0.175538
1925.500000	0.179029
1926.000000	0.178519
1926.500000	0.188625
1927.000000	0.186644
1927.500000	0.178560
1928.000000	0.158348
1928.500000	0.178702
1929.000000	0.175089
1929.500000	0.186236
1930.000000	0.178151
1930.500000	0.179192
1931.000000	0.161267
1931.500000	0.204937
1932.000000	0.177478
1932.500000	0.183480
1933.000000	0.184868
1933.500000	0.181418
1934.000000	0.168127
1934.500000	0.186277
1935.000000	0.157429
1935.500000	0.178764
1936.000000	0.180887
1936.500000	0.190380
1937.000000	0.179662
1937.500000	0.179540
1938.000000	0.174150
1938.500000	0.188441
1939.000000	0.179254
1939.500000	0.177355
1940.000000	0.171761
1940.500000	0.158226
1941.000000	0.170495
1941.500000	0.163921
1942.000000	0.180479
1942.500000	0.175068
1943.000000	0.161655
1943.500000	0.168372
1944.000000	0.167678
1944.500000	0.165167
1945.000000	0.167331
1945.500000	0.170945
1946.000000	0.171965
1946.500000	0.167515
1947.000000	0.172190
1947.500000	0.165881
1948.000000	0.165800
1948.500000	0.175436
1949.000000	0.191687
1949.500000	0.156164
1950.000000	0.151386
1950.500000	0.183112
1951.000000	0.166331
1951.500000	0.161288
1952.000000	0.164309
1952.500000	0.150468
1953.000000	0.170761
1953.500000	0.167964
1954.000000	0.176763
1954.500000	0.171455
1955.000000	0.174415
1955.500000	0.152917
1956.000000	0.163248
1956.500000	0.151754
1957.000000	0.184439
1957.500000	0.171189
1958.000000	0.155408
1958.500000	0.186256
1959.000000	0.174334
1959.500000	0.168658
1960.000000	0.164983
1960.500000	0.173313
1961.000000	0.165085
1961.500000	0.197056
1962.000000	0.190319
1962.500000	0.162370
1963.000000	0.152693
1963.500000	0.178907
1964.000000	0.190176
1964.500000	0.173231
1965.000000	0.175150
1965.500000	0.175701
1966.000000	0.181316
1966.500000	0.178172
1967.000000	0.193545
1967.500000	0.161492
1968.000000	0.152285
1968.500000	0.168719
1969.000000	0.170087
1969.500000	0.165779
1970.000000	0.179621
1970.500000	0.165106
1971.000000	0.166147
1971.500000	0.157429
1972.000000	0.153897
1972.500000	0.155755
1973.000000	0.175395
1973.500000	0.173333
1974.000000	0.161022
1974.500000	0.172312
1975.000000	0.164309
1975.500000	0.168780
1976.000000	0.179825
1976.500000	0.170557
1977.000000	0.178151
1977.500000	0.170107
1978.000000	0.164922
1978.500000	0.162064
1979.000000	0.178070
1979.500000	0.179744
1980.000000	0.172129
1980.500000	0.168740
1981.000000	0.162329
1981.500000	0.158266
1982.000000	0.170393
1982.500000	0.172129
1983.000000	0.184276
1983.500000	0.172435
1984.000000	0.174456
1984.500000	0.157919
1985.000000	0.168740
1985.500000	0.169046
1986.000000	0.170638
1986.500000	0.184807
1987.000000	0.178947
1987.500000	0.170761
1988.000000	0.177457
1988.500000	0.177845
1989.000000	0.178580
1989.500000	0.152795
1990.000000	0.189319
1990.500000	0.175150
1991.000000	0.163595
1991.500000	0.184786
1992.000000	0.169760
1992.500000	0.179825
1993.000000	0.169454
1993.500000	0.156878
1994.000000	0.177130
1994.500000	0.146486
1995.000000	0.164759
1995.500000	0.171557
1996.000000	0.161757
1996.500000	0.158818
1997.000000	0.150815
1997.500000	0.170577
1998.000000	0.160471
1998.500000	0.155633
1999.000000	0.155041
1999.500000	0.189911
2000.000000	0.161778
2000.500000	0.183970
2001.000000	0.173986
2001.500000	0.163084
2002.000000	0.153020
2002.500000	0.176477
2003.000000	0.150468
2003.500000	0.168495
2004.000000	0.173496
2004.500000	0.162513
2005.000000	0.156939
2005.500000	0.158593
2006.000000	0.175293
2006.500000	0.175048
2007.000000	0.164105
2007.500000	0.148651
2008.000000	0.160614
2008.500000	0.184868
2009.000000	0.165922
2009.500000	0.169617
2010.000000	0.156572
2010.500000	0.170352
2011.000000	0.183949
2011.500000	0.167617
2012.000000	0.159716
2012.500000	0.182663
2013.000000	0.167229
2013.500000	0.181009
2014.000000	0.166698
2014.500000	0.162594
2015.000000	0.192075
2015.500000	0.179601
2016.000000	0.162819
2016.500000	0.176845
2017.000000	0.146507
2017.500000	0.174926
2018.000000	0.160941
2018.500000	0.162615
2019.000000	0.149508
2019.500000	0.158021
2020.000000	0.151223
2020.500000	0.148385
2021.000000	0.150835
2021.500000	0.161941
2022.000000	0.159287
2022.500000	0.172904
2023.000000	0.152285
2023.500000	0.177906
2024.000000	0.146629
2024.500000	0.145486
2025.000000	0.182806
2025.500000	0.160512
2026.000000	0.183725
2026.500000	0.153060
2027.000000	0.176906
2027.500000	0.186869
2028.000000	0.185930
2028.500000	0.164922
2029.000000	0.162390
2029.500000	0.176355
2030.000000	0.165391
2030.500000	0.171108
2031.000000	0.182255
2031.500000	0.173435
2032.000000	0.178600
2032.500000	0.159103
2033.000000	0.170291
2033.500000	0.165126
2034.000000	0.163697
2034.500000	0.163554
2035.000000	0.145629
2035.500000	0.155204
2036.000000	0.145629
2036.500000	0.173109
2037.000000	0.155551
2037.500000	0.164166
2038.000000	0.153367
2038.500000	0.182520
2039.000000	0.157062
2039.500000	0.199935
2040.000000	0.170822
2040.500000	0.162615
2041.000000	0.168842
2041.500000	0.171822
2042.000000	0.186767
2042.500000	0.154796
2043.000000	0.175497
2043.500000	0.176028
2044.000000	0.174436
2044.500000	0.180009
2045.000000	0.162982
2045.500000	0.178539
2046.000000	0.194137
2046.500000	0.153530
2047.000000	0.145425
2047.500000	0.173088
2048.000000	0.177518
2048.500000	0.190584
2049.000000	0.179009
2049.500000	0.174334
2050.000000	0.161860
2050.500000	0.159900
2051.000000	0.176600
2051.500000	0.175048
2052.000000	0.187134
2052.500000	0.163248
2053.000000	0.176824
2053.500000	0.178886
2054.000000	0.155980
2054.500000	0.167719
2055.000000	0.184991
2055.500000	0.178437
2056.000000	0.159940
2056.500000	0.177620
2057.000000	0.193769
2057.500000	0.157021
2058.000000	0.162002
2058.500000	0.169168
2059.000000	0.169965
2059.500000	0.192381
2060.000000	0.177784
2060.500000	0.185011
2061.000000	0.162043
2061.500000	0.168188
2062.000000	0.154367
2062.500000	0.179499
2063.000000	0.172986
2063.500000	0.199302
2064.000000	0.172782
2064.500000	0.167025
2065.000000	0.168923
2065.500000	0.156102
2066.000000	0.176885
2066.500000	0.200119
2067.000000	0.182296
2067.500000	0.189931
2068.000000	0.182091
2068.500000	0.203324
2069.000000	0.183398
2069.500000	0.176069
2070.000000	0.191074
2070.500000	0.172639
2071.000000	0.155429
2071.500000	0.155857
2072.000000	0.187481
2072.500000	0.201139
2073.000000	0.180132
2073.500000	0.171169
2074.000000	0.179274
2074.500000	0.157960
2075.000000	0.191585
2075.500000	0.160900
2076.000000	0.167658
2076.500000	0.177233
2077.000000	0.186011
2077.500000	0.179825
2078.000000	0.188543
2078.500000	0.180295
2079.000000	0.163901
2079.500000	0.175763
2080.000000	0.177416
2080.500000	0.170577
2081.000000	0.196464
2081.500000	0.156898
2082.000000	0.157082
2082.500000	0.175661
2083.000000	0.183010
2083.500000	0.165820
2084.000000	0.196872
2084.500000	0.180438
2085.000000	0.204406
2085.500000	0.180274
2086.000000	0.164534
2086.500000	0.194831
2087.000000	0.192810
2087.500000	0.174313
2088.000000	0.197117
2088.500000	0.163452
2089.000000	0.171679
2089.500000	0.170067
2090.000000	0.162901
2090.500000	0.180560
2091.000000	0.178580
2091.500000	0.181704
2092.000000	0.192075
2092.500000	0.157205
