0.000000	0.236683
0.500000	0.224434
1.000000	0.252465
1.500000	0.211817
2.000000	0.251893
2.500000	0.274248
3.000000	0.244645
3.500000	0.213062
4.000000	0.243584
4.500000	0.270083
5.000000	0.248688
5.500000	0.239378
6.000000	0.244727
6.500000	0.263203
7.000000	0.233539
7.500000	0.257385
8.000000	0.263407
8.500000	0.241705
9.000000	0.267001
9.500000	0.265428
10.000000	0.257671
10.500000	0.283578
11.000000	0.261468
11.500000	0.280414
12.000000	0.280842
12.500000	0.277168
13.000000	0.259365
13.500000	0.257916
14.000000	0.257997
14.500000	0.245911
15.000000	0.238704
15.500000	0.234274
16.000000	0.253914
16.500000	0.225863
17.000000	0.256936
17.500000	0.267123
18.000000	0.234090
18.500000	0.259508
19.000000	0.273105
19.500000	0.273717
20.000000	0.257283
20.500000	0.235642
21.000000	0.239133
21.500000	0.250729
22.000000	0.253996
22.500000	0.245707
23.000000	0.244033
23.500000	0.241093
24.000000	0.285007
24.500000	0.212695
25.000000	0.273983
25.500000	0.243380
26.000000	0.255731
26.500000	0.247340
27.000000	0.239276
27.500000	0.242665
28.000000	0.228537
28.500000	0.231110
29.000000	0.211817
29.500000	0.214777
30.000000	0.226598
30.500000	0.205774
31.000000	0.220146
31.500000	0.185501
32.000000	0.244298
32.500000	0.223066
33.000000	0.226292
33.500000	0.210265
34.000000	0.208101
34.500000	0.214063
35.000000	0.191871
35.500000	0.220289
36.000000	0.202405
36.500000	0.184153
37.000000	0.179723
37.500000	0.184562
38.000000	0.233008
38.500000	0.241073
39.000000	0.250770
39.500000	0.281210
40.000000	0.264673
40.500000	0.271329
41.000000	0.308832
41.500000	0.298992
42.000000	0.306362
42.500000	0.311527
43.000000	0.324552
43.500000	0.334168
44.000000	0.310261
44.500000	0.342518
45.000000	0.379797
45.500000	0.381390
46.000000	0.341457
46.500000	0.365853
47.000000	0.357953
47.500000	0.352114
48.000000	0.378879
48.500000	0.370896
49.000000	0.356687
49.500000	0.369835
50.000000	0.374244
50.500000	0.399968
51.000000	0.374448
51.500000	0.368895
52.000000	0.390046
52.500000	0.373999
53.000000	0.362852
53.500000	0.351562
54.000000	0.348663
54.500000	0.315325
55.000000	0.373366
55.500000	0.327145
56.000000	0.334087
56.500000	0.344131
57.000000	0.330800
57.500000	0.345152
58.000000	0.310772
58.500000	0.358626
59.000000	0.351930
59.500000	0.319755
60.000000	0.314447
60.500000	0.356462
61.000000	0.282578
61.500000	0.099755
62.000000	0.103062
62.500000	0.103185
63.000000	0.098407
63.500000	0.120436
64.000000	0.110698
64.500000	0.106084
65.000000	0.118476
65.500000	0.088077
66.000000	0.109820
66.500000	0.102613
67.000000	0.094222
67.500000	0.126765
68.000000	0.109840
68.500000	0.098857
69.000000	0.092466
69.500000	0.112066
70.000000	0.107186
70.500000	0.100633
71.000000	0.108615
71.500000	0.094038
72.000000	0.095917
72.500000	0.115802
73.000000	0.092671
73.500000	0.106022
74.000000	0.088097
74.500000	0.110494
75.000000	0.103879
75.500000	0.097223
76.000000	0.112882
76.500000	0.105104
77.000000	0.092773
77.500000	0.100061
78.000000	0.102878
78.500000	0.097550
79.000000	0.086873
79.500000	0.103593
80.000000	0.110943
80.500000	0.133420
81.000000	0.104675
81.500000	0.094631
82.000000	0.092711
82.500000	0.102695
83.000000	0.087505
83.500000	0.115291
84.000000	0.093936
84.500000	0.119558
85.000000	0.109371
85.500000	0.100510
86.000000	0.101654
86.500000	0.113413
87.000000	0.106921
87.500000	0.115495
88.000000	0.106165
88.500000	0.436349
89.000000	0.569705
89.500000	0.550677
90.000000	0.520564
90.500000	0.507212
91.000000	0.523218
91.500000	0.526689
92.000000	0.477670
92.500000	0.450436
93.000000	0.471015
93.500000	0.476017
94.000000	0.441902
94.500000	0.441759
95.000000	0.451457
95.500000	0.457438
96.000000	0.470586
96.500000	0.445209
97.000000	0.436226
97.500000	0.478630
98.000000	0.448108
98.500000	0.481059
99.000000	0.511622
99.500000	0.449701
100.000000	0.439922
100.500000	0.450170
101.000000	0.436655
101.500000	0.449333
102.000000	0.420568
102.500000	0.490818
103.000000	0.436349
103.500000	0.429061
104.000000	0.384064
104.500000	0.391291
105.000000	0.336924
105.500000	0.412503
106.000000	0.406215
106.500000	0.396048
107.000000	0.390536
107.500000	0.402745
108.000000	0.398212
108.500000	0.358647
109.000000	0.362750
109.500000	0.327696
110.000000	0.356728
110.500000	0.313977
111.000000	0.322429
111.500000	0.345111
112.000000	0.322327
112.500000	0.349684
113.000000	0.380553
113.500000	0.409196
114.000000	0.456744
114.500000	0.470055
115.000000	0.477854
115.500000	0.496106
116.000000	0.519686
116.500000	0.546247
117.000000	0.551596
117.500000	0.558108
118.000000	0.583342
118.500000	0.610148
119.000000	0.579320
119.500000	0.644977
120.000000	0.684727
120.500000	0.690361
121.000000	0.653654
121.500000	0.656431
122.000000	0.696343
122.500000	0.689116
123.000000	0.669844
123.500000	0.667965
124.000000	0.737848
124.500000	0.672661
125.000000	0.727600
125.500000	0.714717
126.000000	0.732826
126.500000	0.737318
127.000000	0.781354
127.500000	0.716024
128.000000	0.734276
128.500000	0.710410
129.000000	0.674356
129.500000	0.664433
130.000000	0.666720
130.500000	0.667516
131.000000	0.673743
131.500000	0.632912
132.000000	0.621009
132.500000	0.618498
133.000000	0.628359
133.500000	0.619539
134.000000	0.578300
134.500000	0.603860
135.000000	0.613088
135.500000	0.656839
136.000000	0.625684
136.500000	0.640567
137.000000	0.589508
137.500000	0.593142
138.000000	0.606126
138.500000	0.595367
139.000000	0.585323
139.500000	0.582893
140.000000	0.584383
140.500000	0.582056
141.000000	0.579606
141.500000	0.510172
142.000000	0.496208
142.500000	0.524524
143.000000	0.492206
143.500000	0.523259
144.000000	0.509580
144.500000	0.545594
145.000000	0.510417
145.500000	0.468667
146.000000	0.482978
146.500000	0.471362
147.000000	0.491512
147.500000	0.466217
148.000000	0.477630
148.500000	0.463012
149.000000	0.472403
149.500000	0.445230
150.000000	0.444413
150.500000	0.455846
151.000000	0.428285
151.500000	0.495820
152.000000	0.484938
152.500000	0.500842
153.000000	0.569500
153.500000	0.581484
154.000000	0.661004
154.500000	0.695241
155.000000	0.690525
155.500000	0.641854
156.000000	0.725721
156.500000	0.728273
157.000000	0.722843
157.500000	0.746893
158.000000	0.749955
158.500000	0.765165
159.000000	0.829842
159.500000	0.815551
160.000000	0.833721
160.500000	0.862037
161.000000	0.870306
161.500000	0.854626
162.000000	0.869019
162.500000	0.895335
163.000000	0.905012
163.500000	0.886005
164.000000	0.913648
164.500000	0.883106
165.000000	0.943271
165.500000	0.966484
166.000000	0.895723
166.500000	0.864957
167.000000	0.876042
167.500000	0.893457
168.000000	0.856076
168.500000	0.830924
169.000000	0.841867
169.500000	0.789827
170.000000	0.857056
170.500000	0.784396
171.000000	0.825391
171.500000	0.757835
172.000000	0.757529
172.500000	0.755324
173.000000	0.745280
173.500000	0.776985
174.000000	0.765675
174.500000	0.767778
175.000000	0.761919
175.500000	0.752956
176.000000	0.765450
176.500000	0.813734
177.000000	0.723986
177.500000	0.718086
178.000000	0.726946
178.500000	0.712880
179.000000	0.658268
179.500000	0.692668
180.000000	0.718658
180.500000	0.719086
181.000000	0.707939
181.500000	0.670864
182.000000	0.598062
182.500000	0.592264
183.000000	0.574992
183.500000	0.552964
184.000000	0.597797
184.500000	0.559333
185.000000	0.621254
185.500000	0.547737
186.000000	0.556700
186.500000	0.564437
187.000000	0.529098
187.500000	0.599001
188.000000	0.503619
188.500000	0.492941
189.000000	0.548227
189.500000	0.503292
190.000000	0.499474
190.500000	0.528546
191.000000	0.498086
191.500000	0.511336
192.000000	0.541919
192.500000	0.613884
193.000000	0.660738
193.500000	0.702999
194.000000	0.747893
194.500000	0.799708
195.000000	0.820940
195.500000	0.801954
196.000000	0.852319
196.500000	0.848053
197.000000	0.894621
197.500000	0.881249
198.000000	0.940965
198.500000	0.894927
199.000000	0.889374
199.500000	0.899398
200.000000	0.947008
200.500000	0.985920
201.000000	0.991371
201.500000	0.970057
202.000000	0.934003
202.500000	0.969281
203.000000	0.980265
203.500000	0.956297
204.000000	0.992228
204.500000	0.945885
205.000000	0.976039
205.500000	1.051761
206.000000	0.963075
206.500000	0.938943
207.000000	0.984940
207.500000	0.939699
208.000000	0.886883
208.500000	0.854728
209.000000	0.884025
209.500000	0.910116
210.000000	0.818695
210.500000	0.870939
211.000000	0.832271
211.500000	0.867162
212.000000	0.890762
212.500000	0.814020
213.000000	0.837151
213.500000	0.798116
214.000000	0.780293
214.500000	0.775046
215.000000	0.798177
215.500000	0.798238
216.000000	0.857811
216.500000	0.786540
217.000000	0.747260
217.500000	0.760530
218.000000	0.787357
218.500000	0.734582
219.000000	0.694608
219.500000	0.692791
220.000000	0.685645
220.500000	0.640935
221.000000	0.679439
221.500000	0.651572
222.000000	0.590039
222.500000	0.580055
223.000000	0.593918
223.500000	0.559987
224.000000	0.582403
224.500000	0.583097
225.000000	0.600879
225.500000	0.582464
226.000000	0.581505
226.500000	0.531935
227.000000	0.526097
227.500000	0.520217
228.000000	0.565540
228.500000	0.538366
229.000000	0.512438
229.500000	0.474751
230.000000	0.554086
230.500000	0.571399
231.000000	0.648999
231.500000	0.688238
232.000000	0.675335
232.500000	0.723374
233.000000	0.773882
233.500000	0.770248
234.000000	0.755263
234.500000	0.812407
235.000000	0.819348
235.500000	0.845623
236.000000	0.843439
236.500000	0.842438
237.000000	0.884719
237.500000	0.850319
238.000000	0.841009
238.500000	0.873552
239.000000	0.879840
239.500000	0.894682
240.000000	0.836395
240.500000	0.903685
241.000000	0.893620
241.500000	0.829413
242.000000	0.839151
242.500000	0.827433
243.000000	0.861792
243.500000	0.809201
244.000000	0.863364
244.500000	0.706796
245.000000	0.142689
245.500000	0.096407
246.000000	0.098060
246.500000	0.102633
247.000000	0.107717
247.500000	0.108146
248.000000	0.116087
248.500000	0.128745
249.000000	0.096999
249.500000	0.098734
250.000000	0.121253
250.500000	0.105798
251.000000	0.121947
251.500000	0.102062
252.000000	0.096795
252.500000	0.103226
253.000000	0.119191
253.500000	0.128357
254.000000	0.102633
254.500000	0.103675
255.000000	0.142015
255.500000	0.148691
256.000000	0.153428
256.500000	0.152080
257.000000	0.140117
257.500000	0.153162
258.000000	0.158226
258.500000	0.127214
259.000000	0.164493
259.500000	0.142791
260.000000	0.153550
260.500000	0.169311
261.000000	0.145670
261.500000	0.131256
262.000000	0.156409
262.500000	0.155939
263.000000	0.164473
263.500000	0.149365
264.000000	0.161043
264.500000	0.172455
265.000000	0.145568
265.500000	0.023951
266.000000	-0.003569
266.500000	-0.003569
267.000000	-0.003406
267.500000	-0.003549
268.000000	-0.003487
268.500000	-0.003753
269.000000	-0.003610
269.500000	-0.003385
270.000000	-0.003610
270.500000	-0.003590
271.000000	-0.003590
271.500000	-0.003467
272.000000	-0.003385
272.500000	-0.003651
273.000000	-0.003528
273.500000	-0.003773
274.000000	-0.003467
274.500000	0.003270
275.000000	-0.003712
275.500000	-0.003651
276.000000	-0.003487
276.500000	-0.003835
277.000000	-0.003651
277.500000	-0.003508
278.000000	-0.003692
278.500000	-0.003528
279.000000	-0.003630
279.500000	-0.003487
280.000000	-0.003345
280.500000	-0.003630
281.000000	-0.003855
281.500000	-0.003590
282.000000	-0.003385
282.500000	-0.003487
283.000000	-0.003794
283.500000	-0.003447
284.000000	-0.003487
284.500000	-0.003610
285.000000	-0.003304
285.500000	-0.003467
286.000000	-0.003181
286.500000	-0.003508
287.000000	-0.003508
287.500000	-0.003426
288.000000	-0.003590
288.500000	-0.003508
289.000000	-0.003447
289.500000	-0.003447
290.000000	-0.003610
290.500000	-0.003610
291.000000	-0.003630
291.500000	-0.003610
292.000000	-0.003549
292.500000	-0.003426
293.000000	-0.003549
293.500000	-0.003671
294.000000	-0.003385
294.500000	-0.003447
295.000000	-0.003467
295.500000	-0.003447
296.000000	-0.003467
296.500000	-0.003569
297.000000	-0.003467
297.500000	-0.003324
298.000000	-0.003732
298.500000	-0.003732
299.000000	-0.003712
299.500000	-0.003508
300.000000	-0.003528
300.500000	-0.003508
301.000000	-0.003773
301.500000	-0.003467
302.000000	-0.003630
302.500000	-0.003773
303.000000	-0.003753
303.500000	-0.003590
304.000000	-0.003528
304.500000	-0.003692
305.000000	-0.003814
305.500000	-0.003487
306.000000	-0.003896
306.500000	-0.003671
307.000000	-0.003467
307.500000	-0.003447
308.000000	-0.003508
308.500000	-0.003651
309.000000	-0.003692
309.500000	-0.003549
310.000000	-0.003508
310.500000	-0.003753
311.000000	-0.003610
311.500000	-0.003487
312.000000	-0.003712
312.500000	-0.003528
313.000000	-0.003630
313.500000	-0.003692
314.000000	-0.003732
314.500000	-0.003753
315.000000	-0.003487
315.500000	-0.003487
316.000000	-0.003753
316.500000	-0.003692
317.000000	-0.003610
317.500000	-0.003549
318.000000	-0.003590
318.500000	-0.003528
319.000000	-0.003549
319.500000	-0.003651
320.000000	-0.003549
320.500000	-0.003426
321.000000	-0.003365
321.500000	-0.003385
322.000000	-0.003447
322.500000	-0.003569
323.000000	-0.003590
323.500000	-0.003630
324.000000	-0.003549
324.500000	-0.003651
325.000000	-0.003365
325.500000	-0.003692
326.000000	-0.003732
326.500000	-0.003855
327.000000	-0.003406
327.500000	-0.003569
328.000000	-0.003630
328.500000	-0.003508
329.000000	-0.003487
329.500000	-0.003426
330.000000	-0.003814
330.500000	-0.003447
331.000000	-0.003732
331.500000	-0.003345
332.000000	-0.003508
332.500000	-0.003712
333.000000	-0.003467
333.500000	-0.003406
334.000000	-0.003467
334.500000	-0.003610
335.000000	-0.003365
335.500000	-0.003753
336.000000	-0.003569
336.500000	-0.003569
337.000000	-0.003773
337.500000	-0.003406
338.000000	-0.003569
338.500000	-0.003732
339.000000	-0.003385
339.500000	-0.003365
340.000000	-0.003590
340.500000	-0.003692
341.000000	-0.003487
341.500000	-0.003365
342.000000	-0.003426
342.500000	-0.003467
343.000000	-0.003651
343.500000	-0.003508
344.000000	-0.003467
344.500000	-0.003365
345.000000	-0.003590
345.500000	-0.003610
346.000000	-0.003651
346.500000	-0.003487
347.000000	-0.003569
347.500000	-0.003528
348.000000	-0.003365
348.500000	-0.003528
349.000000	-0.003528
349.500000	-0.003732
350.000000	-0.003263
350.500000	-0.003304
351.000000	-0.003773
351.500000	-0.003814
352.000000	-0.003835
352.500000	-0.003508
353.000000	-0.003426
353.500000	-0.003692
354.000000	-0.003794
354.500000	-0.003753
355.000000	-0.003569
355.500000	-0.003794
356.000000	-0.003712
356.500000	-0.003528
357.000000	-0.003671
357.500000	-0.003692
358.000000	-0.003651
358.500000	-0.003610
359.000000	-0.003426
359.500000	-0.003508
360.000000	-0.003467
360.500000	-0.003487
361.000000	-0.003549
361.500000	-0.003651
362.000000	-0.003345
362.500000	-0.003528
363.000000	-0.003447
363.500000	-0.003508
364.000000	-0.003345
364.500000	-0.003447
365.000000	-0.003651
365.500000	-0.003385
366.000000	-0.003345
366.500000	-0.003569
367.000000	-0.003528
367.500000	-0.003487
368.000000	-0.003385
368.500000	-0.003487
369.000000	-0.003712
369.500000	-0.003692
370.000000	-0.003528
370.500000	-0.003324
371.000000	-0.003528
371.500000	-0.003590
372.000000	-0.003487
372.500000	-0.003426
373.000000	-0.003304
373.500000	-0.003345
374.000000	-0.003487
374.500000	-0.003365
375.000000	-0.003610
375.500000	-0.003528
376.000000	-0.003426
376.500000	-0.003569
377.000000	-0.003406
377.500000	-0.003569
378.000000	-0.003304
378.500000	-0.003590
379.000000	-0.003345
379.500000	-0.003528
380.000000	-0.003426
380.500000	-0.003569
381.000000	-0.003467
381.500000	-0.003304
382.000000	-0.003630
382.500000	-0.003528
383.000000	-0.003569
383.500000	-0.003508
384.000000	-0.003610
384.500000	-0.003426
385.000000	-0.003569
385.500000	-0.003467
386.000000	-0.003365
386.500000	-0.003324
387.000000	-0.003712
387.500000	-0.003610
388.000000	-0.003712
388.500000	-0.003590
389.000000	-0.003651
389.500000	-0.003569
390.000000	-0.003732
390.500000	-0.003447
391.000000	-0.003528
391.500000	-0.003528
392.000000	-0.003651
392.500000	-0.003549
393.000000	-0.003590
393.500000	-0.003467
394.000000	-0.003508
394.500000	-0.003651
395.000000	-0.003406
395.500000	-0.003508
396.000000	-0.003447
396.500000	-0.003406
397.000000	-0.003794
397.500000	-0.003610
398.000000	-0.003447
398.500000	-0.003447
399.000000	-0.003426
399.500000	-0.003569
400.000000	-0.003610
400.500000	-0.003487
401.000000	-0.003283
401.500000	-0.003753
402.000000	-0.003202
402.500000	-0.003590
403.000000	-0.003569
403.500000	-0.003590
404.000000	-0.003692
404.500000	-0.003753
405.000000	-0.003528
405.500000	-0.003671
406.000000	-0.003487
406.500000	-0.003549
407.000000	-0.003773
407.500000	-0.003549
408.000000	0.005577
408.500000	-0.003508
409.000000	-0.003630
409.500000	-0.003773
410.000000	-0.003692
410.500000	-0.003630
411.000000	-0.003712
411.500000	-0.003712
412.000000	-0.003671
412.500000	-0.003447
413.000000	-0.003283
413.500000	-0.003712
414.000000	-0.003508
414.500000	-0.003590
415.000000	-0.003549
415.500000	-0.003712
416.000000	-0.003630
416.500000	-0.003365
417.000000	-0.003508
417.500000	-0.003528
418.000000	-0.003426
418.500000	-0.003426
419.000000	-0.003385
419.500000	-0.003385
420.000000	-0.003365
420.500000	-0.003487
421.000000	-0.003324
421.500000	-0.003161
422.000000	-0.003590
422.500000	-0.000609
423.000000	-0.003426
423.500000	-0.003732
424.000000	-0.003671
424.500000	-0.003426
425.000000	-0.003651
425.500000	-0.003528
426.000000	0.010354
426.500000	-0.003345
427.000000	-0.003487
427.500000	-0.003508
428.000000	-0.003447
428.500000	-0.003406
429.000000	-0.003671
429.500000	-0.003528
430.000000	-0.003610
430.500000	-0.003732
431.000000	-0.003528
431.500000	-0.003406
432.000000	0.001392
432.500000	0.000596
433.000000	-0.000793
433.500000	0.007966
434.000000	0.011824
434.500000	0.023114
435.000000	0.048287
435.500000	0.133972
436.000000	0.195566
436.500000	0.193055
437.000000	0.166902
437.500000	0.172904
438.000000	0.202834
438.500000	0.192687
439.000000	0.192810
439.500000	0.175946
440.000000	0.167739
440.500000	0.185889
441.000000	0.199057
441.500000	0.184705
442.000000	0.175191
442.500000	0.202385
443.000000	0.168883
443.500000	0.185133
444.000000	0.189502
444.500000	0.172945
445.000000	0.163003
445.500000	0.176212
446.000000	0.192667
446.500000	0.185052
447.000000	0.180969
447.500000	0.209285
448.000000	0.170597
448.500000	0.172027
449.000000	0.177968
449.500000	0.199567
450.000000	0.166616
450.500000	0.191381
451.000000	0.173823
451.500000	0.163472
452.000000	0.180315
452.500000	0.196423
453.000000	0.168638
453.500000	0.157470
454.000000	0.107656
454.500000	0.106043
455.000000	0.111494
455.500000	0.110024
456.000000	0.091629
456.500000	0.116047
457.000000	0.101061
457.500000	0.091589
458.000000	0.095141
458.500000	0.111739
459.000000	0.121947
459.500000	0.124989
460.000000	0.115271
460.500000	0.087097
461.000000	0.108758
461.500000	0.102348
462.000000	0.161104
462.500000	0.137116
463.000000	0.129194
463.500000	0.126765
464.000000	0.152999
464.500000	0.137299
465.000000	0.142812
465.500000	0.147364
466.000000	0.163187
466.500000	0.161227
467.000000	0.155265
467.500000	0.153183
468.000000	0.134788
468.500000	0.140096
469.000000	0.129460
469.500000	0.151897
470.000000	0.139566
470.500000	0.132175
471.000000	0.139545
471.500000	0.129582
472.000000	0.133665
472.500000	0.138524
473.000000	0.133706
473.500000	0.142362
474.000000	0.157531
474.500000	0.150488
475.000000	0.130358
475.500000	0.130868
476.000000	0.129664
476.500000	0.152325
477.000000	0.130378
477.500000	0.138198
478.000000	0.140974
478.500000	0.148385
479.000000	0.148957
479.500000	0.144077
480.000000	0.128868
480.500000	0.139729
481.000000	0.151897
481.500000	0.142750
482.000000	0.127684
482.500000	0.124397
483.000000	0.150815
483.500000	0.169332
484.000000	0.134339
484.500000	0.157878
485.000000	0.123253
485.500000	0.144118
486.000000	0.146976
486.500000	0.137218
487.000000	0.144179
487.500000	0.145486
488.000000	0.129766
488.500000	0.149059
489.000000	0.154551
489.500000	0.141199
490.000000	0.124213
490.500000	0.128255
491.000000	0.153183
491.500000	0.155510
492.000000	0.151100
492.500000	0.151468
493.000000	0.156368
493.500000	0.145874
494.000000	0.137973
494.500000	0.142975
495.000000	0.157062
495.500000	0.146670
496.000000	0.139913
496.500000	0.128337
497.000000	0.149896
497.500000	0.165187
498.000000	0.167168
498.500000	0.144874
499.000000	0.168045
499.500000	0.184235
500.000000	0.199220
500.500000	0.165208
501.000000	0.174231
501.500000	0.195219
502.000000	0.194423
502.500000	0.195545
503.000000	0.188032
503.500000	0.176559
504.000000	0.172088
504.500000	0.198322
505.000000	0.157368
505.500000	0.188359
506.000000	0.175661
506.500000	0.194382
507.000000	0.190013
507.500000	0.183827
508.000000	0.197567
508.500000	0.200527
509.000000	0.194300
509.500000	0.207019
510.000000	0.192442
510.500000	0.194382
511.000000	0.190727
511.500000	0.187849
512.000000	0.195198
512.500000	0.172088
513.000000	0.188767
513.500000	0.167984
514.000000	0.181459
514.500000	0.169862
515.000000	0.144731
515.500000	0.175293
516.000000	0.171455
516.500000	0.175640
517.000000	0.188420
517.500000	0.187481
518.000000	0.187951
518.500000	0.172169
519.000000	0.162247
519.500000	0.159675
520.000000	0.168352
520.500000	0.212429
521.000000	0.185848
521.500000	0.188890
522.000000	0.191626
522.500000	0.178294
523.000000	0.160573
523.500000	0.185378
524.000000	0.206407
524.500000	0.188890
525.000000	0.194443
525.500000	0.155694
526.000000	0.168025
526.500000	0.181336
527.000000	0.164452
527.500000	0.152958
528.000000	0.175089
528.500000	0.175273
529.000000	0.172231
529.500000	0.177763
530.000000	0.180438
530.500000	0.167229
531.000000	0.190727
531.500000	0.167208
532.000000	0.146711
532.500000	0.164432
533.000000	0.175885
533.500000	0.143057
534.000000	0.171230
534.500000	0.156817
535.000000	0.166473
535.500000	0.149447
536.000000	0.161492
536.500000	0.162860
537.000000	0.149549
537.500000	0.149488
538.000000	0.141546
538.500000	0.185399
539.000000	0.175436
539.500000	0.183092
540.000000	0.189890
540.500000	0.174456
541.000000	0.178907
541.500000	0.196158
542.000000	0.195403
542.500000	0.210980
543.000000	0.195035
543.500000	0.229681
544.000000	0.228231
544.500000	0.213246
545.000000	0.225393
545.500000	0.255670
546.000000	0.232335
546.500000	0.225475
547.000000	0.258160
547.500000	0.273493
548.000000	0.257650
548.500000	0.250464
549.000000	0.249320
549.500000	0.277821
550.000000	0.238112
550.500000	0.291540
551.000000	0.284823
551.500000	0.264142
552.000000	0.248238
552.500000	0.254057
553.000000	0.255098
553.500000	0.268777
554.000000	0.241950
554.500000	0.240991
555.000000	0.237581
555.500000	0.277719
556.000000	0.233907
556.500000	0.256568
557.000000	0.264775
557.500000	0.250668
558.000000	0.252975
558.500000	0.235948
559.000000	0.264346
559.500000	0.234927
560.000000	0.245054
560.500000	0.256405
561.000000	0.248565
561.500000	0.222964
562.000000	0.208857
562.500000	0.223229
563.000000	0.244421
563.500000	0.242706
564.000000	0.224372
564.500000	0.241563
565.000000	0.260427
565.500000	0.253934
566.000000	0.236357
566.500000	0.253465
567.000000	0.244952
567.500000	0.271635
568.000000	0.273207
568.500000	0.247830
569.000000	0.271104
569.500000	0.238459
570.000000	0.257528
570.500000	0.237336
571.000000	0.220024
571.500000	0.237051
572.000000	0.232049
572.500000	0.230558
573.000000	0.217023
573.500000	0.190033
574.000000	0.211082
574.500000	0.230028
575.000000	0.211041
575.500000	0.207448
576.000000	0.220616
576.500000	0.229027
577.000000	0.223821
577.500000	0.212613
578.000000	0.205978
578.500000	0.237071
579.000000	0.215349
579.500000	0.230477
580.000000	0.211061
580.500000	0.193381
581.000000	0.201895
581.500000	0.199955
582.000000	0.206305
582.500000	0.205447
583.000000	0.197812
583.500000	0.213715
584.000000	0.216022
584.500000	0.227884
585.000000	0.231824
585.500000	0.244298
586.000000	0.282067
586.500000	0.245564
587.000000	0.262162
587.500000	0.268062
588.000000	0.284150
588.500000	0.304647
589.000000	0.320081
589.500000	0.287335
590.000000	0.295195
590.500000	0.350256
591.000000	0.351644
591.500000	0.355768
592.000000	0.294378
592.500000	0.323144
593.000000	0.342988
593.500000	0.362771
594.000000	0.361954
594.500000	0.344254
595.000000	0.342437
595.500000	0.379573
596.000000	0.354298
596.500000	0.351624
597.000000	0.352338
597.500000	0.367364
598.000000	0.393925
598.500000	0.392353
599.000000	0.357320
599.500000	0.388576
600.000000	0.373162
600.500000	0.416321
601.000000	0.372999
601.500000	0.372652
602.000000	0.383003
602.500000	0.379389
603.000000	0.363506
603.500000	0.383288
604.000000	0.354278
604.500000	0.360321
605.000000	0.343866
605.500000	0.362138
606.000000	0.335740
606.500000	0.391046
607.000000	0.365180
607.500000	0.310466
608.000000	0.299400
608.500000	0.365445
609.000000	0.356728
609.500000	0.351277
610.000000	0.362771
610.500000	0.359525
611.000000	0.373509
611.500000	0.385514
612.000000	0.372346
612.500000	0.348786
613.000000	0.351420
613.500000	0.373121
614.000000	0.348847
614.500000	0.341150
615.000000	0.351032
615.500000	0.332025
616.000000	0.316611
616.500000	0.345581
617.000000	0.324430
617.500000	0.360913
618.000000	0.363301
618.500000	0.324900
619.000000	0.290989
619.500000	0.298216
620.000000	0.301728
620.500000	0.320816
621.000000	0.302054
621.500000	0.298114
622.000000	0.304953
622.500000	0.300196
623.000000	0.295562
623.500000	0.277208
624.000000	0.294031
624.500000	0.304014
625.000000	0.331249
625.500000	0.292643
626.000000	0.306913
626.500000	0.314732
627.000000	0.271063
627.500000	0.273717
628.000000	0.259773
628.500000	0.272778
629.000000	0.258038
629.500000	0.273574
630.000000	0.291642
630.500000	0.279536
631.000000	0.275085
631.500000	0.291132
632.000000	0.287008
632.500000	0.268164
633.000000	0.285375
633.500000	0.344233
634.000000	0.329595
634.500000	0.387576
635.000000	0.351072
635.500000	0.379022
636.000000	0.397477
636.500000	0.409257
637.000000	0.457888
637.500000	0.439411
638.000000	0.426917
638.500000	0.470525
639.000000	0.463665
639.500000	0.467218
640.000000	0.467442
640.500000	0.440146
641.000000	0.488981
641.500000	0.480590
642.000000	0.496555
642.500000	0.530690
643.000000	0.540775
643.500000	0.511132
644.000000	0.572522
644.500000	0.500271
645.000000	0.533732
645.500000	0.528424
646.000000	0.502598
646.500000	0.543021
647.000000	0.565989
647.500000	0.539571
648.000000	0.523606
648.500000	0.505150
649.000000	0.542490
649.500000	0.540020
650.000000	0.551085
650.500000	0.544818
651.000000	0.525464
651.500000	0.568847
652.000000	0.534426
652.500000	0.531568
653.000000	0.472219
653.500000	0.501965
654.000000	0.482162
654.500000	0.436614
655.000000	0.504599
655.500000	0.448966
656.000000	0.448455
656.500000	0.442555
657.000000	0.476405
657.500000	0.496045
658.000000	0.465686
658.500000	0.462502
659.000000	0.484081
659.500000	0.483775
660.000000	0.469994
660.500000	0.482754
661.000000	0.490083
661.500000	0.483366
662.000000	0.472424
662.500000	0.504925
663.000000	0.451028
663.500000	0.459745
664.000000	0.475710
664.500000	0.468259
665.000000	0.464788
665.500000	0.458500
666.000000	0.468238
666.500000	0.467483
667.000000	0.482631
667.500000	0.467299
668.000000	0.456234
668.500000	0.445781
669.000000	0.427897
669.500000	0.429530
670.000000	0.424487
670.500000	0.361587
671.000000	0.369263
671.500000	0.391087
672.000000	0.394497
672.500000	0.366650
673.000000	0.378144
673.500000	0.379205
674.000000	0.392884
674.500000	0.402704
675.000000	0.391598
675.500000	0.406440
676.000000	0.387106
676.500000	0.405480
677.000000	0.361648
677.500000	0.370406
678.000000	0.354421
678.500000	0.363975
679.000000	0.363730
679.500000	0.352910
680.000000	0.340334
680.500000	0.376449
681.000000	0.369426
681.500000	0.418404
682.000000	0.383738
682.500000	0.347418
683.000000	0.384983
683.500000	0.390209
684.000000	0.385289
684.500000	0.347010
685.000000	0.395803
685.500000	0.348806
686.000000	0.320714
686.500000	0.149038
687.000000	0.106002
687.500000	0.105410
688.000000	0.090629
688.500000	0.111923
689.000000	0.094365
689.500000	0.086852
690.000000	0.106043
690.500000	0.103001
691.000000	0.121906
691.500000	0.112719
692.000000	0.112433
692.500000	0.112147
693.000000	0.108942
693.500000	0.108105
694.000000	0.098040
694.500000	0.108023
695.000000	0.157797
695.500000	0.161717
696.000000	0.128174
696.500000	0.171577
697.000000	0.128929
697.500000	0.154265
698.000000	0.143955
698.500000	0.147405
699.000000	0.165514
699.500000	0.162942
700.000000	0.158450
700.500000	0.134768
701.000000	0.188237
701.500000	0.172864
702.000000	0.147303
702.500000	0.168556
703.000000	0.146609
703.500000	0.172067
704.000000	0.177498
704.500000	0.137565
705.000000	0.149569
705.500000	0.149630
706.000000	0.149814
706.500000	0.148058
707.000000	0.138565
707.500000	0.137585
708.000000	0.132971
708.500000	0.125458
709.000000	0.152366
709.500000	0.157572
710.000000	0.135176
710.500000	0.145915
711.000000	0.167984
711.500000	0.189604
712.000000	0.151795
712.500000	0.172129
713.000000	0.178866
713.500000	0.190625
714.000000	0.156878
714.500000	0.192197
715.000000	0.174742
715.500000	0.191442
716.000000	0.161329
716.500000	0.165779
717.000000	0.177559
717.500000	0.169475
718.000000	0.163248
718.500000	0.174701
719.000000	0.175497
719.500000	0.164534
720.000000	0.179744
720.500000	0.202916
721.000000	0.181642
721.500000	0.169842
722.000000	0.182500
722.500000	0.150978
723.000000	0.182745
723.500000	0.194300
724.000000	0.201976
724.500000	0.184092
725.000000	0.193218
725.500000	0.192626
726.000000	0.195627
726.500000	0.186440
727.000000	0.174436
727.500000	0.169250
728.000000	0.203998
728.500000	0.192177
729.000000	0.166759
729.500000	0.162349
730.000000	0.165575
730.500000	0.207285
731.000000	0.187849
731.500000	0.190544
732.000000	0.191217
732.500000	0.212368
733.000000	0.184317
733.500000	0.186746
734.000000	0.169495
734.500000	0.197812
735.000000	0.160859
735.500000	0.190952
736.000000	0.198934
736.500000	0.208734
737.000000	0.194831
737.500000	0.174456
738.000000	0.170802
738.500000	0.188502
739.000000	0.187542
739.500000	0.183051
740.000000	0.194341
740.500000	0.186501
741.000000	0.192851
741.500000	0.179948
742.000000	0.190033
742.500000	0.174027
743.000000	0.187216
743.500000	0.180397
744.000000	0.181254
744.500000	0.209387
745.000000	0.184643
745.500000	0.165249
746.000000	0.187420
746.500000	0.190789
747.000000	0.202936
747.500000	0.194055
748.000000	0.205243
748.500000	0.184888
749.000000	0.184113
749.500000	0.164371
750.000000	0.183214
750.500000	0.178172
751.000000	0.167066
751.500000	0.199976
752.000000	0.171965
752.500000	0.210694
753.000000	0.196383
753.500000	0.181214
754.000000	0.186665
754.500000	0.172006
755.000000	0.220596
755.500000	0.184051
756.000000	0.197199
756.500000	0.176375
757.000000	0.194484
757.500000	0.181397
758.000000	0.194525
758.500000	0.193912
759.000000	0.199384
759.500000	0.194076
760.000000	0.192259
760.500000	0.189012
761.000000	0.186991
761.500000	0.194178
762.000000	0.190197
762.500000	0.203324
763.000000	0.171945
763.500000	0.187808
764.000000	0.197975
764.500000	0.182867
765.000000	0.191258
765.500000	0.200547
766.000000	0.187032
766.500000	0.186828
767.000000	0.177968
767.500000	0.186093
768.000000	0.195709
768.500000	0.204324
769.000000	0.157674
769.500000	0.168760
770.000000	0.191054
770.500000	0.218840
771.000000	0.190911
771.500000	0.186420
772.000000	0.186910
772.500000	0.185868
773.000000	0.176763
773.500000	0.205488
774.000000	0.192381
774.500000	0.187992
775.000000	0.210408
775.500000	0.203222
776.000000	0.206692
776.500000	0.197995
777.000000	0.189033
777.500000	0.202487
778.000000	0.190054
778.500000	0.192789
779.000000	0.172598
779.500000	0.210041
780.000000	0.197158
780.500000	0.208142
781.000000	0.188645
781.500000	0.189931
782.000000	0.182602
782.500000	0.178539
783.000000	0.207795
783.500000	0.164840
784.000000	0.167086
784.500000	0.193708
785.000000	0.197036
785.500000	0.199445
786.000000	0.192646
786.500000	0.206243
787.000000	0.193463
787.500000	0.182704
788.000000	0.182990
788.500000	0.171516
789.000000	0.183276
789.500000	0.201344
790.000000	0.215492
790.500000	0.212633
791.000000	0.205018
791.500000	0.198240
792.000000	0.208857
792.500000	0.198649
793.000000	0.179825
793.500000	0.191421
794.000000	0.194872
794.500000	0.200404
795.000000	0.199629
795.500000	0.159798
796.000000	0.215635
796.500000	0.181540
797.000000	0.189217
797.500000	0.195239
798.000000	0.184337
798.500000	0.188339
799.000000	0.197056
799.500000	0.164922
800.000000	0.191544
800.500000	0.209510
801.000000	0.179744
801.500000	0.190503
802.000000	0.195239
802.500000	0.185685
803.000000	0.186869
803.500000	0.169413
804.000000	0.188277
804.500000	0.198159
805.000000	0.207897
805.500000	0.198506
806.000000	0.171904
806.500000	0.210653
807.000000	0.186154
807.500000	0.170332
808.000000	0.195545
808.500000	0.198302
809.000000	0.199200
809.500000	0.191973
810.000000	0.171496
810.500000	0.194484
811.000000	0.195280
811.500000	0.179785
812.000000	0.198383
812.500000	0.198036
813.000000	0.196076
813.500000	0.203181
814.000000	0.212940
814.500000	0.172639
815.000000	0.199343
815.500000	0.194341
816.000000	0.193728
816.500000	0.170638
817.000000	0.188502
817.500000	0.202854
818.000000	0.212225
818.500000	0.178457
819.000000	0.183276
819.500000	0.196525
820.000000	0.244359
820.500000	0.189278
821.000000	0.202650
821.500000	0.208673
822.000000	0.232784
822.500000	0.206100
823.000000	0.182622
823.500000	0.199996
824.000000	0.199894
824.500000	0.162594
825.000000	0.181071
825.500000	0.191524
826.000000	0.193708
826.500000	0.200935
827.000000	0.189849
827.500000	0.204324
828.000000	0.207040
828.500000	0.198832
829.000000	0.175130
829.500000	0.189319
830.000000	0.171639
830.500000	0.176314
831.000000	0.210878
831.500000	0.212470
832.000000	0.211653
832.500000	0.202589
833.000000	0.185256
833.500000	0.179887
834.000000	0.187216
834.500000	0.224127
835.000000	0.204957
835.500000	0.208775
836.000000	0.209775
836.500000	0.196627
837.000000	0.182990
837.500000	0.212021
838.000000	0.193749
838.500000	0.195831
839.000000	0.188257
839.500000	0.186358
840.000000	0.211286
840.500000	0.194810
841.000000	0.204937
841.500000	0.183296
842.000000	0.187604
842.500000	0.174374
843.000000	0.207713
843.500000	0.199588
844.000000	0.193565
844.500000	0.188298
845.000000	0.186603
845.500000	0.191074
846.000000	0.183888
846.500000	0.177968
847.000000	0.194423
847.500000	0.162390
848.000000	0.205978
848.500000	0.217697
849.000000	0.213450
849.500000	0.198506
850.000000	0.198444
850.500000	0.208469
851.000000	0.178049
851.500000	0.189135
852.000000	0.200935
852.500000	0.204140
853.000000	0.195198
853.500000	0.216778
854.000000	0.176416
854.500000	0.179764
855.000000	0.197260
855.500000	0.189523
856.000000	0.196750
856.500000	0.193238
857.000000	0.186624
857.500000	0.181683
858.000000	0.195893
858.500000	0.182684
859.000000	0.202916
859.500000	0.202038
860.000000	0.201078
860.500000	0.181540
861.000000	0.195362
861.500000	0.199833
862.000000	0.207448
862.500000	0.219575
863.000000	0.191442
863.500000	0.200098
864.000000	0.203977
864.500000	0.208836
865.000000	0.200976
865.500000	0.195525
866.000000	0.189645
866.500000	0.198404
867.000000	0.205957
867.500000	0.203895
868.000000	0.200404
868.500000	0.201731
869.000000	0.216778
869.500000	0.216696
870.000000	0.185521
870.500000	0.182336
871.000000	0.206100
871.500000	0.171332
872.000000	0.193994
872.500000	0.184011
873.000000	0.207448
873.500000	0.178029
874.000000	0.199057
874.500000	0.177620
875.000000	0.203895
875.500000	0.196648
876.000000	0.231334
876.500000	0.209530
877.000000	0.200404
877.500000	0.207672
878.000000	0.206733
878.500000	0.191850
879.000000	0.197117
879.500000	0.184950
880.000000	0.207713
880.500000	0.202405
881.000000	0.193320
881.500000	0.199547
882.000000	0.204467
882.500000	0.186481
883.000000	0.189502
883.500000	0.206243
884.000000	0.183541
884.500000	0.171720
885.000000	0.197812
885.500000	0.203161
886.000000	0.192320
886.500000	0.201874
887.000000	0.182398
887.500000	0.194137
888.000000	0.198996
888.500000	0.188910
889.000000	0.201323
889.500000	0.193300
890.000000	0.203977
890.500000	0.210551
891.000000	0.203099
891.500000	0.198302
892.000000	0.184848
892.500000	0.189727
893.000000	0.199976
893.500000	0.180274
894.000000	0.204222
894.500000	0.223699
895.000000	0.207529
895.500000	0.181499
896.000000	0.192953
896.500000	0.189237
897.000000	0.196485
897.500000	0.225169
898.000000	0.183990
898.500000	0.213736
899.000000	0.174334
899.500000	0.178682
900.000000	0.172047
900.500000	0.197567
901.000000	0.216390
901.500000	0.220677
902.000000	0.199874
902.500000	0.188400
903.000000	0.193422
903.500000	0.178213
904.000000	0.214246
904.500000	0.218983
905.000000	0.219820
905.500000	0.192381
906.000000	0.181499
906.500000	0.217962
907.000000	0.179315
907.500000	0.195280
908.000000	0.211735
908.500000	0.196505
909.000000	0.216084
909.500000	0.192463
910.000000	0.204692
910.500000	0.207346
911.000000	0.194035
911.500000	0.182745
912.000000	0.210694
912.500000	0.184378
913.000000	0.166780
913.500000	0.210878
914.000000	0.207917
914.500000	0.197526
915.000000	0.237398
915.500000	0.207774
916.000000	0.217309
916.500000	0.203406
917.000000	0.222392
917.500000	0.196035
918.000000	0.220289
918.500000	0.214450
919.000000	0.214757
919.500000	0.231763
920.000000	0.212409
920.500000	0.215757
921.000000	0.197995
921.500000	0.187624
922.000000	0.210061
922.500000	0.196954
923.000000	0.203344
923.500000	0.190911
924.000000	0.220963
924.500000	0.208122
925.000000	0.214716
925.500000	0.210837
926.000000	0.179723
926.500000	0.189625
927.000000	0.212899
927.500000	0.190850
928.000000	0.202813
928.500000	0.205917
929.000000	0.200323
929.500000	0.177498
930.000000	0.206366
930.500000	0.207611
931.000000	0.188829
931.500000	0.200527
932.000000	0.199506
932.500000	0.204549
933.000000	0.205896
933.500000	0.211633
934.000000	0.208693
934.500000	0.193238
935.000000	0.199792
935.500000	0.195300
936.000000	0.197342
936.500000	0.201956
937.000000	0.214144
937.500000	0.218023
938.000000	0.184358
938.500000	0.168617
939.000000	0.222555
939.500000	0.204426
940.000000	0.214879
940.500000	0.221576
941.000000	0.202507
941.500000	0.221228
942.000000	0.209836
942.500000	0.187542
943.000000	0.198996
943.500000	0.214287
944.000000	0.208754
944.500000	0.193218
945.000000	0.184051
945.500000	0.214022
946.000000	0.194913
946.500000	0.198424
947.000000	0.201303
947.500000	0.204079
948.000000	0.180091
948.500000	0.198179
949.000000	0.223454
949.500000	0.181785
950.000000	0.191074
950.500000	0.202426
951.000000	0.225863
951.500000	0.211511
952.000000	0.207774
952.500000	0.197791
953.000000	0.180356
953.500000	0.209836
954.000000	0.177457
954.500000	0.206121
955.000000	0.201119
955.500000	0.221371
956.000000	0.192851
956.500000	0.193279
957.000000	0.222943
957.500000	0.205345
958.000000	0.207672
958.500000	0.206672
959.000000	0.196097
959.500000	0.199465
960.000000	0.217084
960.500000	0.207529
961.000000	0.193749
961.500000	0.193055
962.000000	0.199506
962.500000	0.168045
963.000000	0.195607
963.500000	0.198077
964.000000	0.201323
964.500000	0.245482
965.000000	0.219922
965.500000	0.185644
966.000000	0.202303
966.500000	0.200670
967.000000	0.191462
967.500000	0.197199
968.000000	0.205161
968.500000	0.202385
969.000000	0.230824
969.500000	0.207101
970.000000	0.193116
970.500000	0.218513
971.000000	0.189421
971.500000	0.195974
972.000000	0.187604
972.500000	0.217411
973.000000	0.209775
973.500000	0.191217
974.000000	0.201854
974.500000	0.223617
975.000000	0.191074
975.500000	0.208387
976.000000	0.198792
976.500000	0.200854
977.000000	0.248116
977.500000	0.223495
978.000000	0.194116
978.500000	0.182030
979.000000	0.177294
979.500000	0.177763
980.000000	0.204957
980.500000	0.209734
981.000000	0.192993
981.500000	0.200772
982.000000	0.187604
982.500000	0.219575
983.000000	0.199343
983.500000	0.194157
984.000000	0.242502
984.500000	0.189094
985.000000	0.200119
985.500000	0.202528
986.000000	0.205733
986.500000	0.207815
987.000000	0.216492
987.500000	0.225475
988.000000	0.214695
988.500000	0.205774
989.000000	0.198526
989.500000	0.222555
990.000000	0.194790
990.500000	0.205080
991.000000	0.188380
991.500000	0.224679
992.000000	0.200792
992.500000	0.215798
993.000000	0.184705
993.500000	0.162064
994.000000	0.207917
994.500000	0.225781
995.000000	0.215859
995.500000	0.193933
996.000000	0.231538
996.500000	0.226475
997.000000	0.198159
997.500000	0.189319
998.000000	0.191319
998.500000	0.209367
999.000000	0.207387
999.500000	0.207448
1000.000000	0.237091
1000.500000	0.213756
1001.000000	0.192708
1001.500000	0.216921
1002.000000	0.213736
1002.500000	0.209612
1003.000000	0.219840
1003.500000	0.196627
1004.000000	0.222147
1004.500000	0.200670
1005.000000	0.192871
1005.500000	0.213450
1006.000000	0.239827
1006.500000	0.176008
1007.000000	0.201976
1007.500000	0.195219
1008.000000	0.219616
1008.500000	0.209061
1009.000000	0.203344
1009.500000	0.200506
1010.000000	0.204630
1010.500000	0.211653
1011.000000	0.207979
1011.500000	0.202119
1012.000000	0.202099
1012.500000	0.181336
1013.000000	0.181949
1013.500000	0.200915
1014.000000	0.212266
1014.500000	0.219248
1015.000000	0.207877
1015.500000	0.211021
1016.000000	0.198097
1016.500000	0.207448
1017.000000	0.204263
1017.500000	0.215635
1018.000000	0.209632
1018.500000	0.194606
1019.000000	0.203630
1019.500000	0.203712
1020.000000	0.207917
1020.500000	0.189115
1021.000000	0.194157
1021.500000	0.210755
1022.000000	0.209510
1022.500000	0.214205
1023.000000	0.192483
1023.500000	0.212246
1024.000000	0.186705
1024.500000	0.232253
1025.000000	0.220146
1025.500000	0.219820
1026.000000	0.172823
1026.500000	0.189094
1027.000000	0.182786
1027.500000	0.212858
1028.000000	0.199547
1028.500000	0.200629
1029.000000	0.206611
1029.500000	0.201099
1030.000000	0.217676
1030.500000	0.234560
1031.000000	0.189727
1031.500000	0.221555
1032.000000	0.171639
1032.500000	0.226271
1033.000000	0.223168
1033.500000	0.214634
1034.000000	0.205365
1034.500000	0.218166
1035.000000	0.206795
1035.500000	0.203344
1036.000000	0.196444
1036.500000	0.228333
1037.000000	0.177825
1037.500000	0.200629
1038.000000	0.207693
1038.500000	0.234090
1039.000000	0.209857
1039.500000	0.207836
1040.000000	0.188400
1040.500000	0.176436
1041.000000	0.225822
1041.500000	0.203467
1042.000000	0.206917
1042.500000	0.200547
1043.000000	0.193688
1043.500000	0.191197
1044.000000	0.213675
1044.500000	0.193075
1045.000000	0.201017
1045.500000	0.205406
1046.000000	0.192463
1046.500000	0.199853
1047.000000	0.219350
1047.500000	0.181561
1048.000000	0.197812
1048.500000	0.212307
1049.000000	0.176436
1049.500000	0.185236
1050.000000	0.216512
1050.500000	0.209081
1051.000000	0.184868
1051.500000	0.226720
1052.000000	0.186256
1052.500000	0.179090
1053.000000	0.185031
1053.500000	0.208734
1054.000000	0.205998
1054.500000	0.204916
1055.000000	0.201139
1055.500000	0.210857
1056.000000	0.190932
1056.500000	0.207958
1057.000000	0.198118
1057.500000	0.191401
1058.000000	0.194014
1058.500000	0.183378
1059.000000	0.187012
1059.500000	0.189380
1060.000000	0.218554
1060.500000	0.179009
1061.000000	0.210837
1061.500000	0.185705
1062.000000	0.192259
1062.500000	0.204692
1063.000000	0.194218
1063.500000	0.212266
1064.000000	0.190380
1064.500000	0.192361
1065.000000	0.192136
1065.500000	0.206100
1066.000000	0.211898
1066.500000	0.218431
1067.000000	0.204712
1067.500000	0.186828
1068.000000	0.206733
1068.500000	0.208162
1069.000000	0.190278
1069.500000	0.174456
1070.000000	0.192136
1070.500000	0.214226
1071.000000	0.212429
1071.500000	0.187706
1072.000000	0.214818
1072.500000	0.187992
1073.000000	0.190135
1073.500000	0.206774
1074.000000	0.191769
1074.500000	0.218595
1075.000000	0.199567
1075.500000	0.198036
1076.000000	0.190360
1076.500000	0.204937
1077.000000	0.224352
1077.500000	0.197628
1078.000000	0.215226
1078.500000	0.224495
1079.000000	0.180377
1079.500000	0.195627
1080.000000	0.199465
1080.500000	0.210959
1081.000000	0.216022
1081.500000	0.194688
1082.000000	0.212980
1082.500000	0.209061
1083.000000	0.202323
1083.500000	0.198996
1084.000000	0.194668
1084.500000	0.231906
1085.000000	0.191319
1085.500000	0.191850
1086.000000	0.191789
1086.500000	0.196342
1087.000000	0.192769
1087.500000	0.183133
1088.000000	0.201262
1088.500000	0.225475
1089.000000	0.210143
1089.500000	0.238541
1090.000000	0.183092
1090.500000	0.214328
1091.000000	0.183521
1091.500000	0.194035
1092.000000	0.200302
1092.500000	0.182112
1093.000000	0.219024
1093.500000	0.199220
1094.000000	0.216329
1094.500000	0.242522
1095.000000	0.223985
1095.500000	0.215532
1096.000000	0.217002
1096.500000	0.211572
1097.000000	0.192769
1097.500000	0.203508
1098.000000	0.228170
1098.500000	0.230926
1099.000000	0.210429
1099.500000	0.198853
1100.000000	0.200813
1100.500000	0.198220
1101.000000	0.214083
1101.500000	0.222372
1102.000000	0.192381
1102.500000	0.190870
1103.000000	0.185072
1103.500000	0.187298
1104.000000	0.201874
1104.500000	0.191666
1105.000000	0.191401
1105.500000	0.201650
1106.000000	0.191421
1106.500000	0.201201
1107.000000	0.223270
1107.500000	0.181847
1108.000000	0.212164
1108.500000	0.199139
1109.000000	0.215614
1109.500000	0.200996
1110.000000	0.221024
1110.500000	0.223617
1111.000000	0.194178
1111.500000	0.206652
1112.000000	0.192177
1112.500000	0.203099
1113.000000	0.204059
1113.500000	0.196954
1114.000000	0.206570
1114.500000	0.180315
1115.000000	0.195055
1115.500000	0.202875
1116.000000	0.202181
1116.500000	0.193157
1117.000000	0.204916
1117.500000	0.191340
1118.000000	0.213573
1118.500000	0.198016
1119.000000	0.203181
1119.500000	0.167780
1120.000000	0.107819
1120.500000	0.162737
1121.000000	0.117741
1121.500000	0.134360
1122.000000	0.145772
1122.500000	0.135401
1123.000000	0.130685
1123.500000	0.125132
1124.000000	0.136748
1124.500000	0.136115
1125.000000	0.119681
1125.500000	0.208224
1126.000000	0.184582
1126.500000	0.192749
1127.000000	0.203324
1127.500000	0.169699
1128.000000	0.157225
1128.500000	0.128194
1129.000000	0.119864
1129.500000	0.138565
1130.000000	0.131338
1130.500000	0.139443
1131.000000	0.173599
1131.500000	0.150080
1132.000000	0.151264
1132.500000	0.124315
1133.000000	0.120844
1133.500000	0.123968
1134.000000	0.160022
1134.500000	0.183357
1135.000000	0.142179
1135.500000	0.155837
1136.000000	0.186726
1136.500000	0.168005
1137.000000	0.168168
1137.500000	0.176375
1138.000000	0.207877
1138.500000	0.170659
1139.000000	0.152121
1139.500000	0.194606
1140.000000	0.175926
1140.500000	0.173292
1141.000000	0.185276
1141.500000	0.182663
1142.000000	0.177253
1142.500000	0.193933
1143.000000	0.181683
1143.500000	0.182132
1144.000000	0.174007
1144.500000	0.165228
1145.000000	0.174905
1145.500000	0.191544
1146.000000	0.164881
1146.500000	0.183664
1147.000000	0.178988
1147.500000	0.175068
1148.000000	0.184643
1148.500000	0.181009
1149.000000	0.177988
1149.500000	0.168066
1150.000000	0.185889
1150.500000	0.174170
1151.000000	0.165208
1151.500000	0.193504
1152.000000	0.149426
1152.500000	0.175640
1153.000000	0.187318
1153.500000	0.182071
1154.000000	0.175661
1154.500000	0.154877
1155.000000	0.173149
1155.500000	0.204692
1156.000000	0.168290
1156.500000	0.189829
1157.000000	0.157919
1157.500000	0.185664
1158.000000	0.188277
1158.500000	0.184235
1159.000000	0.165044
1159.500000	0.162513
1160.000000	0.201507
1160.500000	0.196954
1161.000000	0.198424
1161.500000	0.174599
1162.000000	0.192585
1162.500000	0.178988
1163.000000	0.189135
1163.500000	0.155816
1164.000000	0.165616
1164.500000	0.183908
1165.000000	0.170924
1165.500000	0.180846
1166.000000	0.175579
1166.500000	0.187951
1167.000000	0.158532
1167.500000	0.165085
1168.000000	0.192381
1168.500000	0.215553
1169.000000	0.177968
1169.500000	0.169209
1170.000000	0.190360
1170.500000	0.192851
1171.000000	0.195852
1171.500000	0.169393
1172.000000	0.188747
1172.500000	0.179376
1173.000000	0.159144
1173.500000	0.174803
1174.000000	0.172149
1174.500000	0.160226
1175.000000	0.170557
1175.500000	0.177192
1176.000000	0.165861
1176.500000	0.186440
1177.000000	0.173844
1177.500000	0.180234
1178.000000	0.175681
1178.500000	0.149283
1179.000000	0.184439
1179.500000	0.175742
1180.000000	0.174027
1180.500000	0.164901
1181.000000	0.168944
1181.500000	0.193259
1182.000000	0.166351
1182.500000	0.201793
1183.000000	0.175926
1183.500000	0.164452
1184.000000	0.186195
1184.500000	0.203671
1185.000000	0.184746
1185.500000	0.173599
1186.000000	0.193953
1186.500000	0.164575
1187.000000	0.163615
1187.500000	0.157878
1188.000000	0.153693
1188.500000	0.164166
1189.000000	0.172047
1189.500000	0.191687
1190.000000	0.157776
1190.500000	0.188237
1191.000000	0.183174
1191.500000	0.171353
1192.000000	0.181193
1192.500000	0.182357
1193.000000	0.215410
1193.500000	0.242910
1194.000000	0.188318
1194.500000	0.191993
1195.000000	0.206162
1195.500000	0.207040
1196.000000	0.167678
1196.500000	0.201201
1197.000000	0.209939
1197.500000	0.196627
1198.000000	0.199792
1198.500000	0.182132
1199.000000	0.170924
1199.500000	0.197444
1200.000000	0.200792
1200.500000	0.191258
1201.000000	0.192524
1201.500000	0.154428
1202.000000	0.194055
1202.500000	0.203671
1203.000000	0.198792
1203.500000	0.187930
1204.000000	0.192851
1204.500000	0.212041
1205.000000	0.197587
1205.500000	0.172455
1206.000000	0.199751
1206.500000	0.197281
1207.000000	0.198097
1207.500000	0.199220
